# Wavelength || Average || inc1 | inc2 | ...
  300.000000  2.41897997860125059E+02  2.41897997860125059E+02
  302.000000  2.50021808361054383E+02  2.50021808361054383E+02
  304.000000  2.58543352106087639E+02  2.58543352106087639E+02
  306.000000  2.67493179989983844E+02  2.67493179989983844E+02
  308.000000  2.76905348206507483E+02  2.76905348206507483E+02
  310.000000  2.86817989599445184E+02  2.86817989599445184E+02
  312.000000  2.97274007581738431E+02  2.97274007581738431E+02
  314.000000  3.08321925167168558E+02  3.08321925167168558E+02
  316.000000  3.20016931995792618E+02  3.20016931995792618E+02
  318.000000  3.32422186433741160E+02  3.32422186433741160E+02
  320.000000  3.45610449579663168E+02  3.45610449579663168E+02
  322.000000  3.59666155867608950E+02  3.59666155867608950E+02
  324.000000  3.74688064860831275E+02  3.74688064860831275E+02
  326.000000  3.90792697004769025E+02  3.90792697004769025E+02
  328.000000  4.08118842640636217E+02  4.08118842640636217E+02
  330.000000  4.26833565352428707E+02  4.26833565352428707E+02
  332.000000  4.47140327023774944E+02  4.47140327023774944E+02
  334.000000  4.69290195920068584E+02  4.69290195920068584E+02
  336.000000  4.93597662031527818E+02  4.93597662031527818E+02
  338.000000  5.20463580972774480E+02  5.20463580972774480E+02
  340.000000  5.50409640002062702E+02  5.50409640002062702E+02
  342.000000  5.84132463675311328E+02  5.84132463675311328E+02
  344.000000  6.22592884003975655E+02  6.22592884003975655E+02
  346.000000  6.67166715357013686E+02  6.67166715357013686E+02
  348.000000  7.19880452664340623E+02  7.19880452664340623E+02
  350.000000  7.83717558860731401E+02  7.83717558860731401E+02
  352.000000  8.63014990971570455E+02  8.63014990971570455E+02
  354.000000  9.63249099154037708E+02  9.63249099154037708E+02
  356.000000  1.09603889002668848E+03  1.09603889002668848E+03
  358.000000  1.27333694083197520E+03  1.27333694083197520E+03
  360.000000  1.45843448486489456E+03  1.45843448486489456E+03
  362.000000  1.65103375630058736E+03  1.65103375630058736E+03
  364.000000  1.95364391149683843E+03  1.95364391149683843E+03
  366.000000  2.45182426284185522E+03  2.45182426284185522E+03
  368.000000  3.26764437356913686E+03  3.26764437356913686E+03
  370.000000  4.60356591376178767E+03  4.60356591376178767E+03
  372.000000  6.59089428948753084E+03  6.59089428948753084E+03
  374.000000  8.45078506739682598E+03  8.45078506739682598E+03
  376.000000  8.19569286155250484E+03  8.19569286155250484E+03
  378.000000  6.15371074437575589E+03  6.15371074437575589E+03
  380.000000  4.32038994141680814E+03  4.32038994141680814E+03
  382.000000  3.17875224413900014E+03  3.17875224413900014E+03
  384.000000  2.51393142578024163E+03  2.51393142578024163E+03
  386.000000  2.12319827948194961E+03  2.12319827948194961E+03
  388.000000  1.88990955044730504E+03  1.88990955044730504E+03
  390.000000  1.75099082202552449E+03  1.75099082202552449E+03
  392.000000  1.67162583480945136E+03  1.67162583480945136E+03
  394.000000  1.63181806081127684E+03  1.63181806081127684E+03
  396.000000  1.61959227398965322E+03  1.61959227398965322E+03
  398.000000  1.62748960994932395E+03  1.62748960994932395E+03
  400.000000  1.65069261757563072E+03  1.65069261757563072E+03
  402.000000  1.68598026589111555E+03  1.68598026589111555E+03
  404.000000  1.73112117058021136E+03  1.73112117058021136E+03
  406.000000  1.78450684088125581E+03  1.78450684088125581E+03
  408.000000  1.84492099271569191E+03  1.84492099271569191E+03
  410.000000  1.91138848716111170E+03  1.91138848716111170E+03
  412.000000  1.98307230480499652E+03  1.98307230480499652E+03
  414.000000  2.05920046179889869E+03  2.05920046179889869E+03
  416.000000  2.13901239102909040E+03  2.13901239102909040E+03
  418.000000  2.22171879042687397E+03  2.22171879042687397E+03
  420.000000  2.30647168591031823E+03  2.30647168591031823E+03
  422.000000  2.39234320164564588E+03  2.39234320164564588E+03
  424.000000  2.47831265484410369E+03  2.47831265484410369E+03
  426.000000  2.56326228424181818E+03  2.56326228424181818E+03
  428.000000  2.64598226543201326E+03  2.64598226543201326E+03
  430.000000  2.72518569712048338E+03  2.72518569712048338E+03
  432.000000  2.79953397818359235E+03  2.79953397818359235E+03
  434.000000  2.86767244720706913E+03  2.86767244720706913E+03
  436.000000  2.92827530858985165E+03  2.92827530858985165E+03
  438.000000  2.98009766626459123E+03  2.98009766626459123E+03
  440.000000  3.02203094103380499E+03  3.02203094103380499E+03
  442.000000  3.05315644454847097E+03  3.05315644454847097E+03
  444.000000  3.07279129551809365E+03  3.07279129551809365E+03
  446.000000  3.08052186331497705E+03  3.08052186331497705E+03
  448.000000  3.07622200725076300E+03  3.07622200725076300E+03
  450.000000  3.06005527597634182E+03  3.06005527597634182E+03
  452.000000  3.03246141036528115E+03  3.03246141036528115E+03
  454.000000  2.99412845040362072E+03  2.99412845040362072E+03
  456.000000  2.94595290459034686E+03  2.94595290459034686E+03
  458.000000  2.88899158142140914E+03  2.88899158142140914E+03
  460.000000  2.82440936253704285E+03  2.82440936253704285E+03
  462.000000  2.75342720211535789E+03  2.75342720211535789E+03
  464.000000  2.67727404176751315E+03  2.67727404176751315E+03
  466.000000  2.59714535730037824E+03  2.59714535730037824E+03
  468.000000  2.51416994626734049E+03  2.51416994626734049E+03
  470.000000  2.42938552008593388E+03  2.42938552008593388E+03
  472.000000  2.34372280910798190E+03  2.34372280910798190E+03
  474.000000  2.25799728197069362E+03  2.25799728197069362E+03
  476.000000  2.17290722488359643E+03  2.17290722488359643E+03
  478.000000  2.08903678829537830E+03  2.08903678829537830E+03
  480.000000  2.00686263527920073E+03  2.00686263527920073E+03
  482.000000  1.92676296195333543E+03  1.92676296195333543E+03
  484.000000  1.84902785535125508E+03  1.84902785535125508E+03
  486.000000  1.77387016930966774E+03  1.77387016930966774E+03
  488.000000  1.70143630710540265E+03  1.70143630710540265E+03
  490.000000  1.63181648452730542E+03  1.63181648452730542E+03
  492.000000  1.56505420113685068E+03  1.56505420113685068E+03
  494.000000  1.50115476897683516E+03  1.50115476897683516E+03
  496.000000  1.44009283902056404E+03  1.44009283902056404E+03
  498.000000  1.38181893028702962E+03  1.38181893028702962E+03
  500.000000  1.32626500960144085E+03  1.32626500960144085E+03
  502.000000  1.27334919622607413E+03  1.27334919622607413E+03
  504.000000  1.22297967930905133E+03  1.22297967930905133E+03
  506.000000  1.17505794089748770E+03  1.17505794089748770E+03
  508.000000  1.12948137601678081E+03  1.12948137601678081E+03
  510.000000  1.08614539623820974E+03  1.08614539623820974E+03
  512.000000  1.04494509586989602E+03  1.04494509586989602E+03
  514.000000  1.00577655157248842E+03  1.00577655157248842E+03
  516.000000  9.68537817609908643E+02  9.68537817609908643E+02
  518.000000  9.33129670605771594E+02  9.33129670605771594E+02
  520.000000  8.99456149900176683E+02  8.99456149900176683E+02
  522.000000  8.67424932547298340E+02  8.67424932547298340E+02
  524.000000  8.36947575734077191E+02  8.36947575734077191E+02
  526.000000  8.07939653928791017E+02  8.07939653928791017E+02
  528.000000  7.80320813352434698E+02  7.80320813352434698E+02
  530.000000  7.54014762342216272E+02  7.54014762342216272E+02
  532.000000  7.28949212773213389E+02  7.28949212773213389E+02
  534.000000  7.05055784849452493E+02  7.05055784849452493E+02
  536.000000  6.82269885194426934E+02  6.82269885194426934E+02
  538.000000  6.60530566197316148E+02  6.60530566197316148E+02
  540.000000  6.39780372944222336E+02  6.39780372944222336E+02
  542.000000  6.19965182727649108E+02  6.19965182727649108E+02
  544.000000  6.01034041037212660E+02  6.01034041037212660E+02
  546.000000  5.82938997047065641E+02  5.82938997047065641E+02
  548.000000  5.65634940898160153E+02  5.65634940898160153E+02
  550.000000  5.49079444494904237E+02  5.49079444494904237E+02
  552.000000  5.33232607072524729E+02  5.33232607072524729E+02
  554.000000  5.18056906421861186E+02  5.18056906421861186E+02
  556.000000  5.03517056366209886E+02  5.03517056366209886E+02
  558.000000  4.89579870854358546E+02  4.89579870854358546E+02
  560.000000  4.76214134855221118E+02  4.76214134855221118E+02
  562.000000  4.63390482100962345E+02  4.63390482100962345E+02
  564.000000  4.51081279620274756E+02  4.51081279620274756E+02
  566.000000  4.39260518924984694E+02  4.39260518924984694E+02
  568.000000  4.27903713655363219E+02  4.27903713655363219E+02
  570.000000  4.16987803448990292E+02  4.16987803448990292E+02
  572.000000  4.06491063770285052E+02  4.06491063770285052E+02
  574.000000  3.96393021421141896E+02  3.96393021421141896E+02
  576.000000  3.86674375443793053E+02  3.86674375443793053E+02
  578.000000  3.77316923124566131E+02  3.77316923124566131E+02
  580.000000  3.68303490809307505E+02  3.68303490809307505E+02
  582.000000  3.59617869246597081E+02  3.59617869246597081E+02
  584.000000  3.51244753183404043E+02  3.51244753183404043E+02
  586.000000  3.43169684947709754E+02  3.43169684947709754E+02
  588.000000  3.35379001763887345E+02  3.35379001763887345E+02
  590.000000  3.27859786558929159E+02  3.27859786558929159E+02
  592.000000  3.20599822029804727E+02  3.20599822029804727E+02
  594.000000  3.13587547755088622E+02  3.13587547755088622E+02
  596.000000  3.06812020146433156E+02  3.06812020146433156E+02
  598.000000  3.00262875047694763E+02  3.00262875047694763E+02
  600.000000  2.93930292801659846E+02  2.93930292801659846E+02
  602.000000  2.87804965615533490E+02  2.87804965615533490E+02
  604.000000  2.81878067067673840E+02  2.81878067067673840E+02
  606.000000  2.76141223608174528E+02  2.76141223608174528E+02
  608.000000  2.70586487916235171E+02  2.70586487916235171E+02
  610.000000  2.65206313986205146E+02  2.65206313986205146E+02
  612.000000  2.59993533823342432E+02  2.59993533823342432E+02
  614.000000  2.54941335638385311E+02  2.54941335638385311E+02
  616.000000  2.50043243437944170E+02  2.50043243437944170E+02
  618.000000  2.45293097914875688E+02  2.45293097914875688E+02
  620.000000  2.40685038549596840E+02  2.40685038549596840E+02
  622.000000  2.36213486839624096E+02  2.36213486839624096E+02
  624.000000  2.31873130580454529E+02  2.31873130580454529E+02
  626.000000  2.27658909126441102E+02  2.27658909126441102E+02
  628.000000  2.23565999565330685E+02  2.23565999565330685E+02
  630.000000  2.19589803744847700E+02  2.19589803744847700E+02
  632.000000  2.15725936094175694E+02  2.15725936094175694E+02
  634.000000  2.11970212187130329E+02  2.11970212187130329E+02
  636.000000  2.08318637997675381E+02  2.08318637997675381E+02
  638.000000  2.04767399801899415E+02  2.04767399801899415E+02
  640.000000  2.01312854683829556E+02  2.01312854683829556E+02
  642.000000  1.97951521605409425E+02  1.97951521605409425E+02
  644.000000  1.94680073003852868E+02  1.94680073003852868E+02
  646.000000  1.91495326882039222E+02  1.91495326882039222E+02
  648.000000  1.88394239360132275E+02  1.88394239360132275E+02
  650.000000  1.85373897658754316E+02  1.85373897658754316E+02
  652.000000  1.82431513486075772E+02  1.82431513486075772E+02
  654.000000  1.79564416803176982E+02  1.79564416803176982E+02
  656.000000  1.76770049943728651E+02  1.76770049943728651E+02
  658.000000  1.74045962065711564E+02  1.74045962065711564E+02
  660.000000  1.71389803914372123E+02  1.71389803914372123E+02
  662.000000  1.68799322877114150E+02  1.68799322877114150E+02
  664.000000  1.66272358312206592E+02  1.66272358312206592E+02
  666.000000  1.63806837134519583E+02  1.63806837134519583E+02
  668.000000  1.61400769642559538E+02  1.61400769642559538E+02
  670.000000  1.59052245572098258E+02  1.59052245572098258E+02
  672.000000  1.56759430362783007E+02  1.56759430362783007E+02
  674.000000  1.54520561624866275E+02  1.54520561624866275E+02
  676.000000  1.52333945794129136E+02  1.52333945794129136E+02
  678.000000  1.50197954963816983E+02  1.50197954963816983E+02
  680.000000  1.48111023883160385E+02  1.48111023883160385E+02
  682.000000  1.46071647112678420E+02  1.46071647112678420E+02
  684.000000  1.44078376327148561E+02  1.44078376327148561E+02
  686.000000  1.42129817757664625E+02  1.42129817757664625E+02
  688.000000  1.40224629764762796E+02  1.40224629764762796E+02
  690.000000  1.38361520535134929E+02  1.38361520535134929E+02
  692.000000  1.36539245894852257E+02  1.36539245894852257E+02
  694.000000  1.34756607232534151E+02  1.34756607232534151E+02
  696.000000  1.33012449526252254E+02  1.33012449526252254E+02
  698.000000  1.31305659468398176E+02  1.31305659468398176E+02
  700.000000  1.29635163683018902E+02  1.29635163683018902E+02
  702.000000  1.27999927030554545E+02  1.27999927030554545E+02
  704.000000  1.26398950995146564E+02  1.26398950995146564E+02
  706.000000  1.24831272150016645E+02  1.24831272150016645E+02
  708.000000  1.23295960696679856E+02  1.23295960696679856E+02
  710.000000  1.21792119073978981E+02  1.21792119073978981E+02
  712.000000  1.20318880633233675E+02  1.20318880633233675E+02
  714.000000  1.18875408375950499E+02  1.18875408375950499E+02
  716.000000  1.17460893750772954E+02  1.17460893750772954E+02
  718.000000  1.16074555506545607E+02  1.16074555506545607E+02
  720.000000  1.14715638598580199E+02  1.14715638598580199E+02
  722.000000  1.13383413145316268E+02  1.13383413145316268E+02
  724.000000  1.12077173432762251E+02  1.12077173432762251E+02
  726.000000  1.10796236964290685E+02  1.10796236964290685E+02
  728.000000  1.09539943553420969E+02  1.09539943553420969E+02
  730.000000  1.08307654457436627E+02  1.08307654457436627E+02
  732.000000  1.07098751549732967E+02  1.07098751549732967E+02
  734.000000  1.05912636528981139E+02  1.05912636528981139E+02
  736.000000  1.04748730163235848E+02  1.04748730163235848E+02
  738.000000  1.03606471567254715E+02  1.03606471567254715E+02
  740.000000  1.02485317511393887E+02  1.02485317511393887E+02
  742.000000  1.01384741760522445E+02  1.01384741760522445E+02
  744.000000  1.00304234441466022E+02  1.00304234441466022E+02
  746.000000  9.92433014376221792E+01  9.92433014376221792E+01
  748.000000  9.82014638094061212E+01  9.82014638094061212E+01
  750.000000  9.71782572392967126E+01  9.71782572392967126E+01
  752.000000  9.61732315003091003E+01  9.61732315003091003E+01
  754.000000  9.51859499467443300E+01  9.51859499467443300E+01
  756.000000  9.42159890262160786E+01  9.42159890262160786E+01
  758.000000  9.32629378119055445E+01  9.32629378119055445E+01
  760.000000  9.23263975541159141E+01  9.23263975541159141E+01
  762.000000  9.14059812502354845E+01  9.14059812502354845E+01
  764.000000  9.05013132322312117E+01  9.05013132322312117E+01
  766.000000  8.96120287708843506E+01  8.96120287708843506E+01
  768.000000  8.87377736960038845E+01  8.87377736960038845E+01
  770.000000  8.78782040318715190E+01  8.78782040318715190E+01
  772.000000  8.70329856472398831E+01  8.70329856472398831E+01
  774.000000  8.62017939192205489E+01  8.62017939192205489E+01
  776.000000  8.53843134104511421E+01  8.53843134104511421E+01
  778.000000  8.45802375589311879E+01  8.45802375589311879E+01
  780.000000  8.37892683799733931E+01  8.37892683799733931E+01
  782.000000  8.30111161797360637E+01  8.30111161797360637E+01
  784.000000  8.22454992798267028E+01  8.22454992798267028E+01
  786.000000  8.14921437524875500E+01  8.14921437524875500E+01
  788.000000  8.07507831659088851E+01  8.07507831659088851E+01
  790.000000  8.00211583392330823E+01  8.00211583392330823E+01
  792.000000  7.93030171068210024E+01  7.93030171068210024E+01
  794.000000  7.85961140913987322E+01  7.85961140913987322E+01
  796.000000  7.79002104856968742E+01  7.79002104856968742E+01
  798.000000  7.72150738422215284E+01  7.72150738422215284E+01
  800.000000  7.65404778708231390E+01  7.65404778708231390E+01
  802.000000  7.58762022437205275E+01  7.58762022437205275E+01
  804.000000  7.52220324076901647E+01  7.52220324076901647E+01
  806.000000  7.45777594030957829E+01  7.45777594030957829E+01
  808.000000  7.39431796895051292E+01  7.39431796895051292E+01
  810.000000  7.33180949775930486E+01  7.33180949775930486E+01
  812.000000  7.27023120671002800E+01  7.27023120671002800E+01
  814.000000  7.20956426905818972E+01  7.20956426905818972E+01
  816.000000  7.14979033627184180E+01  7.14979033627184180E+01
  818.000000  7.09089152349692853E+01  7.09089152349692853E+01
  820.000000  7.03285039553423132E+01  7.03285039553423132E+01
  822.000000  6.97564995330871369E+01  6.97564995330871369E+01
  824.000000  6.91927362081084709E+01  6.91927362081084709E+01
  826.000000  6.86370523249125029E+01  6.86370523249125029E+01
  828.000000  6.80892902109172837E+01  6.80892902109172837E+01
  830.000000  6.75492960589442788E+01  6.75492960589442788E+01
  832.000000  6.70169198137348161E+01  6.70169198137348161E+01
  834.000000  6.64920150623254074E+01  6.64920150623254074E+01
  836.000000  6.59744389281547257E+01  6.59744389281547257E+01
  838.000000  6.54640519687361575E+01  6.54640519687361575E+01
  840.000000  6.49607180767560237E+01  6.49607180767560237E+01
  842.000000  6.44643043845048425E+01  6.44643043845048425E+01
  844.000000  6.39746811714626560E+01  6.39746811714626560E+01
  846.000000  6.34917217749598422E+01  6.34917217749598422E+01
  848.000000  6.30153025037810437E+01  6.30153025037810437E+01
  850.000000  6.25453025545962902E+01  6.25453025545962902E+01
  852.000000  6.20816039311317169E+01  6.20816039311317169E+01
  854.000000  6.16240913659645031E+01  6.16240913659645031E+01
  856.000000  6.11726522448456080E+01  6.11726522448456080E+01
  858.000000  6.07271765334683522E+01  6.07271765334683522E+01
  860.000000  6.02875567065709106E+01  6.02875567065709106E+01
  862.000000  5.98536876793257591E+01  5.98536876793257591E+01
  864.000000  5.94254667408864634E+01  5.94254667408864634E+01
  866.000000  5.90027934900481341E+01  5.90027934900481341E+01
  868.000000  5.85855697729363953E+01  5.85855697729363953E+01
  870.000000  5.81736996226465095E+01  5.81736996226465095E+01
  872.000000  5.77670892007690782E+01  5.77670892007690782E+01
  874.000000  5.73656467407294386E+01  5.73656467407294386E+01
  876.000000  5.69692824928846733E+01  5.69692824928846733E+01
  878.000000  5.65779086713140558E+01  5.65779086713140558E+01
  880.000000  5.61914394022355950E+01  5.61914394022355950E+01
  882.000000  5.58097906740019027E+01  5.58097906740019027E+01
  884.000000  5.54328802886193373E+01  5.54328802886193373E+01
  886.000000  5.50606278147319017E+01  5.50606278147319017E+01
  888.000000  5.46929545420210346E+01  5.46929545420210346E+01
  890.000000  5.43297834369792838E+01  5.43297834369792838E+01
  892.000000  5.39710391000054273E+01  5.39710391000054273E+01
  894.000000  5.36166477237720400E+01  5.36166477237720400E+01
  896.000000  5.32665370528319642E+01  5.32665370528319642E+01
  898.000000  5.29206363444210695E+01  5.29206363444210695E+01
  900.000000  5.25788763303980318E+01  5.25788763303980318E+01
