# Wavelength | Total | n= 1 | ...
  300.000000  5.03602603744949647E+02  3.31261376352353409E+02  1.40150383065914411E+02  2.91720951695711079E+01  2.83312504366855444E+00  1.78212234756965099E-01  7.19892922602280785E-03  2.08456553501993084E-04  4.49290655666220471E-06
  302.000000  5.22685636977923423E+02  3.44748521382053923E+02  1.44811457687040672E+02  3.00383695626867464E+01  2.89885252892007816E+00  1.80976730313776313E-01  7.24681749146867046E-03  2.07835321730690502E-04  4.43409486109945302E-06
  304.000000  5.42816680345133591E+02  3.58914522985891608E+02  1.49764760134740243E+02  3.09739549735456094E+01  2.97172252017958050E+00  1.84193586799422326E-01  7.31393825564216268E-03  2.07815696647910259E-04  4.39002370703773788E-06
  306.000000  5.64076433303224348E+02  3.73803537698749778E+02  1.55038231146349119E+02  3.19865823161027976E+01  3.05255496433436635E+00  1.87912006456199210E-01  7.40205770507339732E-03  2.08436956205719200E-04  4.67656990390098304E-06
  308.000000  5.86554296776616411E+02  3.89463393621879732E+02  1.60663507702742208E+02  3.30851676943918989E+01  3.14230954193719558E+00  1.92190480838204919E-01  7.51333164740923716E-03  2.09749677141107794E-04  4.65350292400373416E-06
  310.000000  6.10349679932135587E+02  4.05945987547256664E+02  1.66676566659501589E+02  3.42800444478820197E+01  3.24211553652504625E+00  1.97098879583437359E-01  7.65039502558012216E-03  2.11818255260690091E-04  4.64810573274870815E-06
  312.000000  6.35573567341364196E+02  4.23307740879243283E+02  1.73118508510429876E+02  3.55832512813657189E+01  3.35330967064847041E+00  2.02721135065831309E-01  7.81647859383865877E-03  2.14724241000503746E-04  4.66177612159979428E-06
  314.000000  6.62350420150793525E+02  4.41610127068233851E+02  1.80036518196980921E+02  3.70088928388524607E+01  3.47748448824769074E+00  2.09158728689936763E-01  8.01556261806256505E-03  2.18570796957994026E-04  4.69637278669797527E-06
  316.000000  6.90820500283441106E+02  4.60920287212480162E+02  1.87485051357418683E+02  3.85735947571601088E+01  3.61655086187722485E+00  2.16535269678322151E-01  8.25258176121758565E-03  2.23488723765209317E-04  4.75434229311276841E-06
  318.000000  7.21142739745225299E+02  4.81311756047605286E+02  1.95527310036985000E+02  4.02970832321854147E+01  3.77281965914169293E+00  2.25002583870582362E-01  8.53370182625949603E-03  2.29644715398627991E-04  4.83889542530369962E-06
  320.000000  7.53498320076693744E+02  5.02865328550908544E+02  2.04237093376455164E+02  4.22029305607058944E+01  3.94910976033136274E+00  2.34748922105152080E-01  8.86669908810990524E-03  2.37252842135282540E-04  4.95425583602288898E-06
  322.000000  7.88095188839446564E+02  5.25670109170230262E+02  2.13701138697968190E+02  4.43195247150422489E+01  4.14889287572074572E+00  2.46010194840388080E-01  9.26148882657849490E-03  2.46590800976431647E-04  5.10601684538141123E-06
  324.000000  8.25173829909101642E+02  5.49824803444081226E+02  2.24022110507730986E+02  4.66813455220936930E+01  4.37649062531549760E+00  2.59085609502778924E-01  9.73087534734870183E-03  2.58023366018880751E-04  5.30166391492610153E-06
  326.000000  8.65014737498606792E+02  5.75439339257311076E+02  2.35322454994776194E+02  4.93306669342962465E+01  4.63734723700767404E+00  2.74359848467413181E-01  1.02916384047781594E-02  2.72036984808376905E-04  5.55135772763241299E-06
  328.000000  9.07948245421831416E+02  6.02636948773489621E+02  2.47749424523849939E+02  5.23198616749636898E+01  4.93841395088516677E+00  2.92335193556607031E-01  1.09661438321154783E-02  2.89292115557746499E-04  5.86913956234464457E-06
  330.000000  9.54367676021788611E+02  6.31556914287255040E+02  2.61481704424573763E+02  5.57145740372070293E+01  5.28870231855157868E+00  3.13679179628792493E-01  1.17847950241427180E-02  3.10704703207138704E-04  6.27484434358302555E-06
  332.000000  1.00474727321988757E+03  6.62358304942155883E+02  2.76738265671833915E+02  5.95981714933862321E+01  5.70009963366770656E+00  3.39297226064289470E-01  1.27898782775243414E-02  3.37577255632707477E-04  6.79724577258696538E-06
  334.000000  1.05966721102373594E+03  6.95225252867601284E+02  2.93790359242633713E+02  6.40781275404885236E+01  6.18860343746594488E+00  3.70446831089879081E-01  1.40418071508035380E-02  3.71817865241911845E-04  7.47944201760969365E-06
  336.000000  1.11984939312379629E+03  7.30374735313609563E+02  3.12978024936799102E+02  6.92954057943071717E+01  6.77624902192815970E+00  4.08923668452853217E-01  1.56296775724942029E-02  4.16322604661534929E-04  8.38852240305194713E-06
  338.000000  1.18621033486236229E+03  7.68068665614890051E+02  3.34733222807125230E+02  7.54386653157954044E+01  7.49422809775406584E+00  4.57377755520476048E-01  1.76899595838984937E-02  4.75677817725621245E-04  9.63387485963051752E-06
  340.000000  1.25994234561278427E+03  8.08633875206087396E+02  3.59612920115719703E+02  8.27665148293650503E+01  8.38814788005753442E+00  5.19877235923370873E-01  2.04414163434222564E-02  5.57525350842125763E-04  1.14039357558411566E-05
  342.000000  1.34264417598857472E+03  8.52497519507030120E+02  3.88347586914260660E+02  9.16438188729333802E+01  9.52733608686968303E+00  6.02970916384281908E-01  2.42542740545773280E-02  6.75373244451332928E-04  1.40437979964790844E-05
  344.000000  1.43654233029635270E+03  9.00253512876523018E+02  4.21914283295165660E+02  1.02603822865266579E+02  1.10222316685070325E+01  7.17812278934413239E-01  2.97945356988573856E-02  8.54559184985753239E-04  1.82170723794748046E-05
  346.000000  1.54487457430278027E+03  9.52781980318217393E+02  4.61649291512264085E+02  1.16460412935198491E+02  1.30588055131683767E+01  8.84593623990016287E-01  3.83219086623900404E-02  1.14335569585267429E-03  2.51355859321246161E-05
  348.000000  1.67250859083355590E+03  1.01140026412918087E+03  5.09420819828516301E+02  1.34523227548335740E+02  1.59692312499236273E+01  1.14127547943740071E+00  5.21195546014142294E-02  1.61690569778310069E-03  3.61378657679776099E-05
  350.000000  1.82680275101664847E+03  1.07788682992155009E+03  5.67889197927808937E+02  1.59033296402608585E+02  2.03637080558005721E+01  1.55331360089398762E+00  7.40477798046294822E-02  2.30740023873438537E-03  4.99279414084827423E-05
  352.000000  2.01876406455870256E+03  1.15427501802872939E+03  6.40928215695440713E+02  1.94060238204172350E+02  2.72131291325754745E+01  2.17997460371101637E+00  1.04317322765397638E-01  3.10931148049287771E-03  6.22598236604577921E-05
  354.000000  2.26344832916305495E+03  1.24122202509352337E+03  7.34259141034345703E+02  2.47245751813397533E+02  3.76693220404588160E+01  2.91870506557896014E+00  1.29786851760172961E-01  3.53252140573660171E-03  6.47425827887035513E-05
  356.000000  2.59261379223778022E+03  1.34509966518139754E+03  8.57226769654886311E+02  3.31513159449552063E+02  5.46847368772721509E+01  3.93102558461241669E+00  1.54716737143096750E-01  3.65930351040824522E-03  5.94494064965173002E-05
  358.000000  3.02039164545920721E+03  1.47009043976990415E+03  1.02197772950415697E+03  4.45611981017863968E+02  7.72088260721908739E+01  5.30494060726002470E+00  1.93527836572361639E-01  4.13994540803873639E-03  6.07058505235912895E-05
  360.000000  3.42608128712115467E+03  1.58098877546177391E+03  1.23943834065973715E+03  5.17556023975856306E+02  8.25778649835326917E+01  5.33051553124092869E+00  1.85951420990317806E-01  3.76235262027868958E-03  5.27354035727424132E-05
  362.000000  3.84906467435535706E+03  1.67985993939420587E+03  1.54777951098154995E+03  5.47921914805061760E+02  6.94044193758741699E+01  3.96602182660820235E+00  1.30332408264957650E-01  2.50103580249579158E-03  3.45279940888803147E-05
  364.000000  4.56547913716719995E+03  1.82509042545828379E+03  2.02614498562120139E+03  6.46227140539665697E+02  6.48235456887205856E+01  3.09829024036032097E+00  9.30963132294611445E-02  1.63101404428556032E-03  2.22916937045746902E-05
  366.000000  5.79762557973378352E+03  2.05278651613803959E+03  2.79742862859990782E+03  8.68702001789396718E+02  7.55834246863821022E+01  3.04056640308382020E+00  8.31594269857887369E-02  1.26561056064416252E-03  1.70794249740433491E-05
  368.000000  7.81054909737929302E+03  2.39736795898963646E+03  4.03378306490529349E+03  1.27571184444344976E+03  9.99045984242488601E+01  3.68945663580643624E+00  9.09288880555239737E-02  1.22922241058054252E-03  1.58703890537271944E-05
  370.000000  1.06520042346679038E+04  2.83648263021432103E+03  5.78866890415636954E+03  1.89796603015834239E+03  1.23866710427397379E+02  4.91977918705160633E+00  9.87660314349875640E-02  1.39916159043992276E-03  1.53314003275419964E-05
  372.000000  1.33012420174685431E+04  3.08990752805418379E+03  7.59979990965614707E+03  2.47031213477938036E+03  1.35197881848819094E+02  5.92711313062968959E+00  9.59051695386332476E-02  1.53242715158257944E-03  1.24026936379921784E-05
  374.000000  1.37090070500404381E+04  2.96547743026099852E+03  8.08166668267693422E+03  2.52412578379610022E+03  1.31925737367011266E+02  5.72333671714377168E+00  8.66702153308150924E-02  1.39855337176654276E-03  1.04535418993294031E-05
  376.000000  1.15833649636361461E+04  2.76723342536173186E+03  6.65869399020807396E+03  2.04707461515129489E+03  1.05776269516336981E+02  4.51838617108175988E+00  6.71943928606937441E-02  1.07395092618510208E-03  8.88384183176478201E-06
  378.000000  8.85627214645858112E+03  2.65202015790287442E+03  4.74013764799862747E+03  1.38886398262265288E+03  7.21929994997703659E+01  3.01137688600554743E+00  4.52648798145982509E-02  7.10733691347221618E-04  5.93513979638418967E-06
  380.000000  6.92658460969185762E+03  2.63178247295631081E+03  3.34990737519254662E+03  8.95416769427845566E+02  4.75444317563040357E+01  1.90349135095290700E+00  2.96141728702173854E-02  4.50940220156799084E-04  3.89480876510871318E-06
  382.000000  5.82683484676787702E+03  2.68236153657112300E+03  2.51053245309489012E+03  6.00296313000623741E+02  3.23781460873676679E+01  1.24607621785188827E+00  2.00220711480126809E-02  2.97073450726552347E-04  2.65142063300932406E-06
  384.000000  5.25086872578371913E+03  2.77861705168279150E+03  2.02127857575507414E+03  4.26915369120675393E+02  2.31825279430467646E+01  8.60824797457446667E-01  1.41702971856683593E-02  2.06187495955590516E-04 -0.00000000000000000E+00
  386.000000  4.98248853299883558E+03  2.90513348771060919E+03  1.73868410189101178E+03  3.20609673871955579E+02  1.74263251448104697E+01  6.24333156787253651E-01  1.04614867445561241E-02  1.49736912062563255E-04 -0.00000000000000000E+00
  388.000000  4.90192244026207845E+03  3.05336676149283812E+03  1.58230123607306314E+03  2.52090834375893564E+02  1.36842149529721056E+01  4.71274374410602437E-01  8.00625975754689322E-03  1.12733132686465134E-04 -0.00000000000000000E+00
  390.000000  4.94461687023152626E+03  3.21840270890376632E+03  1.50873431198278831E+03  2.05931469217371614E+02  1.11745078322150899E+01  3.67467785851766870E-01  6.31718465885165899E-03  8.73248717182941667E-05 -0.00000000000000000E+00
  392.000000  5.07525191308885769E+03  3.39711881307535805E+03  1.49470283397153798E+03  1.73673241505791850E+02  9.45758414428942729E+00  2.94252720843207971E-01  5.11846904226695432E-03  6.92019903212900782E-05 -0.00000000000000000E+00
  394.000000  5.27434614128269459E+03  3.58723403057958421E+03  1.52814948121545331E+03  1.50439886491965410E+02  8.27753325592245304E+00  2.40906416447886212E-01  4.24745519552221108E-03  5.58681231397225613E-05 -0.00000000000000000E+00
  396.000000  5.53150927686828800E+03  3.78681624825602557E+03  1.60372667181332508E+03  1.33280800159447494E+02  7.48094385561286312E+00  2.00962640360545675E-01  3.60433946371692664E-03  4.58040526989104453E-05 -0.00000000000000000E+00
  398.000000  5.84198626698265434E+03  3.99402894928607566E+03  1.72047901087845867E+03  1.20330532939064710E+02  6.97425840674444775E+00  1.70351659542679224E-01  3.12576836283389890E-03  3.80444089198142123E-05 -0.00000000000000000E+00
  400.000000  6.20479991277494264E+03  4.20701611801363470E+03  1.88057149880298721E+03  1.10362668724258469E+02  6.70040983298369497E+00  1.46415059813246401E-01  2.77038868023559912E-03  3.19525884483889017E-05 -0.00000000000000000E+00
  402.000000  6.62154794279968337E+03  4.42387994384301783E+03  2.08837045827520706E+03  1.02542571824489983E+02  6.62507158924547745E+00  1.27359645616935829E-01  2.51052684947640839E-03  2.70952693004798624E-05 -0.00000000000000000E+00
  404.000000  7.09512726283324446E+03  4.64273034836711304E+03  2.34927041469817777E+03  9.62850005137174776E+01  6.72720710466941973E+00  1.11941962998428957E-01  2.32701717979788992E-03  2.31693904279927190E-05 -0.00000000000000000E+00
  406.000000  7.62754747753849369E+03  4.86179410616421228E+03  2.66749211929033936E+03  9.11693964360575251E+01  6.99035094996037998E+00  9.92792308720835959E-02  2.20550903715829036E-03  1.99580130133197116E-05 -0.00000000000000000E+00
  408.000000  8.21574872816033894E+03  5.07957152755177958E+03  3.04180655223110898E+03  8.68880852199677634E+01  7.39168037838272163E+00  8.87322672836502735E-02  2.13320908609444500E-03  1.73027250298359169E-05 -0.00000000000000000E+00
  410.000000  8.84451420751051774E+03  5.29502413360553328E+03  3.45830727520000528E+03  8.32138066402754362E+01  7.88705065134702821E+00  7.98308199968943977E-02  2.09550750542267412E-03  1.50858621402202787E-05 -0.00000000000000000E+00
  412.000000  9.47760624541441939E+03  5.50777008731960086E+03  3.88138842204073990E+03  7.99787969954228970E+01  8.39462834606466224E+00  7.22245996739580842E-02  2.07289417849751152E-03  1.32187380070342799E-05 -0.00000000000000000E+00
  414.000000  1.00538350916066847E+04  5.71825734490543255E+03  4.24965904815338035E+03  7.70607912574611191E+01  8.79020498618585933E+00  6.56502734407551358E-02  2.04039711806479080E-03  1.16336568194377892E-05 -0.00000000000000000E+00
  416.000000  1.05006460906211651E+04  5.92787864815257490E+03  4.48939599645972521E+03  7.43731053775185842E+01  8.93644871906915128E+00  5.99085794319283993E-02  1.97305448584652200E-03  1.02783667118310780E-05 -0.00000000000000000E+00
  418.000000  1.07697061341444132E+04  6.13898713478138234E+03  4.55005524585534658E+03  7.18570426091617946E+01  8.74999651051278882E+00  5.48479920360062378E-02  1.85728384315454092E-03  9.11212601176381194E-06 -0.00000000000000000E+00
  420.000000  1.08705075780388070E+04  6.35476413404783671E+03  4.43795796066171170E+03  6.94755561887383237E+01  8.25786706582860042E+00  5.03527286851069844E-02  1.69924314165850873E-03  8.10286020053961971E-06 -0.00000000000000000E+00
  422.000000  1.08669336697131730E+04  6.57887809359240055E+03  4.21321825431756952E+03  6.72075431439112094E+01  7.58191725549117024E+00  4.63337220484522916E-02  1.52045668313664827E-03  7.22507401773974834E-06 -0.00000000000000000E+00
  424.000000  1.08397034702738310E+04  6.81485369185584568E+03  3.95289770949071317E+03  6.50424132347874320E+01  6.86558296434838056E+00  4.27216926670138941E-02  1.34457717057607975E-03  6.45829870586020211E-06 -0.00000000000000000E+00
  426.000000  1.08510948444815003E+04  7.06504938241677883E+03  3.71681704702733441E+03  6.29747269142558821E+01  6.21303305815966489E+00  3.94617668122957121E-02  1.18751222623183356E-03  5.78592676352242424E-06 -0.00000000000000000E+00
  428.000000  1.09321313990948256E+04  7.32914630315337126E+03  3.53627501271519031E+03  6.09988035830836566E+01  5.67370950525125650E+00  3.65092726909286985E-02  1.05567091141175128E-03  5.19433249683612285E-06 -0.00000000000000000E+00
  430.000000  1.10851617219008403E+04  7.60214368014937645E+03  3.41862475769486628E+03  5.91033953790808937E+01  5.25510878602431397E+00  3.38264772076189574E-02  9.48742071036594173E-04  4.67220673481394784E-06 -0.00000000000000000E+00
  432.000000  1.12896886759712725E+04  7.87213600756459346E+03  3.35531336679863853E+03  5.72669760110113089E+01  4.94007835301143494E+00  3.13801460196847237E-02  8.62887935705065195E-04  4.21005513936349799E-06 -0.00000000000000000E+00
  434.000000  1.15067639587153026E+04  8.11869371354095347E+03  3.32788629421414589E+03  5.54550085400850321E+01  4.69900581470847456E+00  2.91399477068232521E-02  7.92857874139345003E-04  3.79982550169170202E-06 -0.00000000000000000E+00
  436.000000  1.16835772106761870E+04  8.31334005361385061E+03  3.31209062153064406E+03  5.36214352767392484E+01  4.49728580673932932E+00  2.70778420680362342E-02  7.33171502481384536E-04  3.43464097365107482E-06 -0.00000000000000000E+00
  438.000000  1.17618118509863780E+04  8.42377208574754331E+03  3.28199627213443273E+03  5.17165128454280989E+01  4.30112970547265583E+00  2.51685580889150218E-02  6.78886795470426798E-04  3.10862062922450561E-06 -0.00000000000000000E+00
  440.000000  1.16911957324539835E+04  8.42210768406536226E+03  3.21527993978060476E+03  4.97005538262528148E+01  4.08353479161912780E+00  2.33909195575513484E-02  6.26253831836629535E-04  2.81676298083490581E-06 -0.00000000000000000E+00
  442.000000  1.14445776607488806E+04  8.29443006125731335E+03  3.09873728577170004E+03  4.75583865010367504E+01  3.82962225315010940E+00  2.17292048070710092E-02  5.73206013026597745E-04  2.55485657101885792E-06 -0.00000000000000000E+00
  444.000000  1.10267911761133728E+04  8.04650315434896038E+03  2.93142217438056196E+03  4.53063374203489957E+01  3.53881473124209478E+00  2.01734682713431840E-02  5.19444598297827170E-04  2.31938064811245069E-06 -0.00000000000000000E+00
  446.000000  1.04716192894413180E+04  7.70195112666174828E+03  2.72343980655919222E+03  4.29868999414715915E+01  3.22226984524078919E+00  1.87183252427954167E-02  4.66001035570175128E-04  2.10738077639667662E-06 -0.00000000000000000E+00
  448.000000  9.82878543760888715E+03  7.29409413427544496E+03  2.49112226416544854E+03  4.06543488606759809E+01  2.89691314138758926E+00  1.73607657347899791E-02  4.14483860282978856E-04  1.91633587812103984E-06 -0.00000000000000000E+00
  450.000000  9.14877644957895245E+03  6.85639496987966413E+03  2.25142597627289251E+03  3.83597207074190862E+01  2.57931647573576317E+00  1.60981132320708528E-02  3.66385967034252584E-04  1.74404620966646539E-06 -0.00000000000000000E+00
  452.000000  8.47241245557463117E+03  6.41591018182171683E+03  2.01806348278352107E+03  3.61416374300799248E+01  2.28190237917543026E+00  1.49268719325014385E-02  3.22699638321975756E-04  1.58855853354654521E-06 -0.00000000000000000E+00
  454.000000  7.82712204504288820E+03  5.99098852760672162E+03  1.80008342206980706E+03  3.40240763696964450E+01  2.01189121399317017E+00  1.38424880822544186E-02  2.83846467255156150E-04  1.44812439715385256E-06 -0.00000000000000000E+00
  456.000000  7.22804837810499885E+03  5.59202445299988540E+03  1.60222018726971146E+03  3.20186132652733022E+01  1.77203381591331288E+00  1.28396410466671343E-02  2.49792002106013317E-04  1.32117772761921533E-06 -0.00000000000000000E+00
  458.000000  6.68121620926620380E+03  5.22350699764228193E+03  1.42600688696556153E+03  3.01282007675231966E+01  1.56198979381487701E+00  1.19126772987582369E-02  2.20213397832228885E-04  1.20631973507658820E-06 -0.00000000000000000E+00
  460.000000  6.18683312792339348E+03  4.88614216676424985E+03  1.27094941667808916E+03  2.83506560211031911E+01  1.37963496662573304E+00  1.10559721771838135E-02  1.94645310964355737E-04  2.87583077844745543E-06 -0.00000000000000000E+00
  462.000000  5.74188571386235344E+03  4.57851848992426676E+03  1.13545356692441601E+03  2.66811909735779409E+01  1.22202667266380383E+00  1.02641570467652959E-02  1.72580537708447244E-04  2.62985101764452610E-06 -0.00000000000000000E+00
  464.000000  5.34188787669365774E+03  4.29822792327418938E+03  1.01745026492237048E+03  2.51139861394830177E+01  1.08601419616625572E+00  9.53222816495910563E-03  1.53528844449520697E-04  2.40443602463922912E-06 -0.00000000000000000E+00
