# Wavelength || Total || n=1 | n=2 | ...
  300.000000  2.82585342698086743E+03  2.06320348641580313E+03  4.16106214338756445E+02  3.10723817398329061E+02  2.40877596961383382E+01  1.09867528674943777E+01  5.71492757821842501E-01  1.66710725155456430E-01  7.19278136892632491E-03
  302.000000  2.97571867493507716E+03  2.17925478050293532E+03  4.36788131160387138E+02  3.22695393608456698E+02  2.49649359662421055E+01  1.12548548237370003E+01  5.84771233580984373E-01  1.68542487324760348E-01  7.26515241383771191E-03
  304.000000  3.13271633938668538E+03  2.30095944761054943E+03  4.58513991064859852E+02  3.35049336603058009E+02  2.58880577620152863E+01  1.15287902171767840E+01  5.98949819812676032E-01  1.70418247065878964E-01  7.34806214704876014E-03
  306.000000  3.29726809108982934E+03  2.42863578974431402E+03  4.81359197409077353E+02  3.47808567895729311E+02  2.68614299342384619E+01  1.18091933912877085E+01  6.14122622866901113E-01  1.72347633803367206E-01  7.44245851235181364E-03
  308.000000  3.46983091449790800E+03  2.56262637707108161E+03  5.05407392545372659E+02  3.60998156501686537E+02  2.78899347594516485E+01  1.20967656306769111E+01  6.30397329877387835E-01  1.74341219113688689E-01  7.54944064766110024E-03
  310.000000  3.65090078277711291E+03  2.70330016876831451E+03  5.30751647957274599E+02  3.74645569308438041E+02  2.89791321404540092E+01  1.23922858634991861E+01  6.47897732631690815E-01  1.76410718791266075E-01  7.67028770915919190E-03
  312.000000  3.84101685742337759E+03  2.85105485442032068E+03  5.57495884357397586E+02  3.88780969935822782E+02  3.01353820778997914E+01  1.26966240441665246E+01  6.66766843218152383E-01  1.78569249800998558E-01  7.80649475042528677E-03
  314.000000  4.04076631767345225E+03  3.00631944471194538E+03  5.85756578495370377E+02  4.03437578736802493E+02  3.13659954533960210E+01  1.30107580278905797E+01  6.87170770281690824E-01  1.80831660002169325E-01  7.95981776348254032E-03
  316.000000  4.25078995398869938E+03  3.16955714558290765E+03  6.15664830448785551E+02  4.18652110908618340E+02  3.26794211210645216E+01  1.33357950581512199E+01  7.09303582644084774E-01  1.83214955775711258E-01  8.13233075273688683E-03
  318.000000  4.47178869934991872E+03  3.34126855707376808E+03  6.47368888196905118E+02  4.34465315801710915E+02  3.40854800082752050E+01  1.36729994383929689E+01  7.33393468664549131E-01  1.85738863390874948E-01  8.32649881022180099E-03
  320.000000  4.70453132644461584E+03  3.52199524757772724E+03  6.81037257740151745E+02  4.50922649323817325E+02  3.55956607118865520E+01  1.40238286256601388E+01  7.59710616558255225E-01  1.88426576048426581E-01  8.54527276582743578E-03
  322.000000  4.94986361484244844E+03  3.71232376728666213E+03  7.16862570479339524E+02  4.68075124245609743E+02  3.72234964538558302E+01  1.43899809892405486E+01  7.88577411120657712E-01  1.91305763236810311E-01  8.79221338239496303E-03
  324.000000  5.20871940041295238E+03  3.91289018319852312E+03  7.55066440260815284E+02  4.85980402494644238E+02  3.89850510231448126E+01  1.47734600260652940E+01  8.20381795286717952E-01  1.94409957747306433E-01  9.07165672527520187E-03
  326.000000  5.48213407597405512E+03  4.12438524527955451E+03  7.95905628295100655E+02  5.04704222926288253E+02  4.08995527425332384E+01  1.51766622652613190E+01  8.55595029449353395E-01  1.97780497796008564E-01  9.38893807237095417E-03
  328.000000  5.77126134391380674E+03  4.34756033459726768E+03  8.39679957031821004E+02  5.24322303937345509E+02  4.29902326229665235E+01  1.56025000384557302E+01  8.94795681036522295E-01  2.01469303921772952E-01  9.75070099220242889E-03
  330.000000  6.07739437188107604E+03  4.58323440875122378E+03  8.86742592491487358E+02  5.44922933698722431E+02  4.52854491773579468E+01  1.60545768453430249E+01  9.38702639842432074E-01  2.05542943413452112E-01  1.01653336857698718E-02
  332.000000  6.40199304556996140E+03  4.83230226439650960E+03  9.37513577528753444E+02  5.66610581572272508E+02  4.78202239086053211E+01  1.65374442696892494E+01  9.88221555184239486E-01  2.10088737399466791E-01  1.06436015484542689E-02
  334.000000  6.74671987751413235E+03  5.09574461165053890E+03  9.92497892451382882E+02  5.89511069233449689E+02  5.06383792180478736E+01  1.70569892949318245E+01  1.04451185945944269E+00  2.15224212634483797E-01  1.11995936873204877E-02
  336.000000  7.11348855112317597E+03  5.37464075756753209E+03  1.05230992010655586E+03  6.13779199831512415E+02  5.37955851612572857E+01  1.76210374747290075E+01  1.10908655915046639E+00  2.21112228071333294E-01  1.18521943674938859E-02
  338.000000  7.50453148588660952E+03  5.67018522836223383E+03  1.11770712587922571E+03  6.39610399329358529E+02  5.73638245239248192E+01  1.82403276239925809E+01  1.18396656522391908E+00  2.27986123510915378E-01  1.26274791393693447E-02
  340.000000  7.92249698852709207E+03  5.98371057332141118E+03  1.18963723897719774E+03  6.67259170059372082E+02  6.14381645516250998E+01  1.89301545851357531E+01  1.27193080281947490E+00  2.36193387520404280E-01  1.35628420108601221E-02
  342.000000  8.37059370409836629E+03  6.31671982193931126E+03  1.26930556219054165E+03  6.97069637604840977E+02  6.61474740620453900E+01  1.97132731196727597E+01  1.37694527486246687E+00  2.46275318096626977E-01  1.47145889955250346E-02
  344.000000  8.85281001241110062E+03  6.67093097446937463E+03  1.35827245514974015E+03  7.29528727614444051E+02  7.16723058021743071E+01  2.06253086404159021E+01  1.50494736726873546E+00  2.59120435996020859E-01  1.61729316869662874E-02
  346.000000  9.37423549746620665E+03  7.04831500642652918E+03  1.45859393445880801E+03  7.65364808173752522E+02  7.82766534970376284E+01  2.17253875312330571E+01  1.66533774871869555E+00  2.76276447570827699E-01  1.80931825577991326E-02
  348.000000  9.94146793105857068E+03  7.45102490057553223E+03  1.57301669640555133E+03  8.05746506148917092E+02  8.63676126894293361E+01  2.31174990279314194E+01  1.87332237151486902E+00  3.00655745498453364E-01  2.07380941964819578E-02
  350.000000  1.05630948129617209E+04  7.88102894623002703E+03  1.70525009741701729E+03  8.52718955407771318E+02  9.65988800238014136E+01  2.49859608696615290E+01  2.14975810890291630E+00  3.37962145394070157E-01  2.42527591478111579E-02
  352.000000  1.12504206606733551E+04  8.33935796671604476E+03  1.86041934037525311E+03  9.10219569234661094E+02  1.09887295269980598E+02  2.75950933178297824E+01  2.52052839568748066E+00  3.92249339051147228E-01  2.86180248469335187E-02
  354.000000  1.20195738618460873E+04  8.82544163965104417E+03  2.04588198015088847E+03  9.86381720972478661E+02  1.27119450235161651E+02  3.12459417585938901E+01  3.01378260437223355E+00  4.54844197837931785E-01  3.45022757093405713E-02
  356.000000  1.29029587306040721E+04  9.34291811487219275E+03  2.27331399510575829E+03  1.09456220518810551E+03  1.50757290930065295E+02  3.70825093131135759E+01  3.72825867425333035E+00  5.52819284207517136E-01  4.35372363771285090E-02
  358.000000  1.39055627343037340E+04  9.87870558819284088E+03  2.56122062441643629E+03  1.23160714945608947E+03  1.83053580683522341E+02  4.54698992262274615E+01  4.73492633595877344E+00  7.14423906508333317E-01  5.65420861509045025E-02
  360.000000  1.49515964035337474E+04  1.04201933509282462E+04  2.94321998521370915E+03  1.31722620395236004E+03  2.14962674953260603E+02  4.96431120243650881E+01  5.49428288661632802E+00  7.92292264454278250E-01  6.45013107367794908E-02
  362.000000  1.61362281441713912E+04  1.10201824146864237E+04  3.47371455189672315E+03  1.34318753303866697E+03  2.45100480210878089E+02  4.74597927201928087E+01  5.79858390440795546E+00  7.21259863426896075E-01  6.35278506728648856E-02
  364.000000  1.76955468979835532E+04  1.16953054128453805E+04  4.24063945781077837E+03  1.40963178628308810E+03  2.95999419497504334E+02  4.66572518626616173E+01  6.58202191688059468E+00  6.64004661923261241E-01  6.75431053341643411E-02
  366.000000  1.98312764395500635E+04  1.24254515057328572E+04  5.40752526092123844E+03  1.55425834288732131E+03  3.85007062456590404E+02  4.99574043679533801E+01  8.31648600854502185E+00  6.78308826090671446E-01  8.20683494721370227E-02
  368.000000  2.28457876322820921E+04  1.31803380535123179E+04  7.24886082358185649E+03  1.81184066440657693E+03  5.34063812237498496E+02  5.83959601306505149E+01  1.14049864732156667E+01  7.73231719635020354E-01  1.10100220342092020E-01
  370.000000  2.70400159039343671E+04  1.38975228917453260E+04  1.00311647390652324E+04  2.24836674774645599E+03  7.71134260035904731E+02  7.42695727762893227E+01  1.64271325081636341E+01  9.73982144521365445E-01  1.56577912475784897E-01
  372.000000  3.17869608802924704E+04  1.46021100574476932E+04  1.31343410003553563E+04  2.85774849947090661E+03  1.07038693256961687E+03  9.78867088113034924E+01  2.29835287636752525E+01  1.28604556117620383E+00  2.18107312742170739E-01
  374.000000  3.43685361497206686E+04  1.55230130152933452E+04  1.41401697631327224E+04  3.32315359807449704E+03  1.23570851604244149E+03  1.17716831160702426E+02  2.69580872519399861E+01  1.56007722068935406E+00  2.56261544338728109E-01
  376.000000  3.28926624760915365E+04  1.64711162860192562E+04  1.20045859168082206E+04  3.20461366709113690E+03  1.07495747129097776E+03  1.12164600551024463E+02  2.35280082851904879E+01  1.47362554873544527E+00  2.22900496990072056E-01
  378.000000  2.97681166009407898E+04  1.73103500217816509E+04  8.97702281186270557E+03  2.61709076922408940E+03  7.62115376311639920E+02  8.39578750225588948E+01  1.63721901903051190E+01  1.05445388034553500E+00  1.53102667497843431E-01
  380.000000  2.77779098722294220E+04  1.82386064450549820E+04  6.80276496489187321E+03  2.14599986145112052E+03  5.18287846562888603E+02  6.06983396227918988E+01  1.07447019277446305E+01  7.09256977034770975E-01  9.84557409838756753E-02
  382.000000  2.71515045553174568E+04  1.92917662635672059E+04  5.53134651525210120E+03  1.90416173597565876E+03  3.68454024871328556E+02  4.79101599672181493E+01  7.28310091127479442E+00  5.17721740257397811E-01  6.50330324125456133E-02
  384.000000  2.73954738905385930E+04  2.04421212600573454E+04  4.82556295684443285E+03  1.80127291311058116E+03  2.79427664761788662E+02  4.14055160589566142E+01  5.22097816051355501E+00  4.17384180693456619E-01  4.52173642840244736E-02
  386.000000  2.81550769448935134E+04  2.16707134079722528E+04  4.44503508330818750E+03  1.77157214844851705E+03  2.25270522519435929E+02  3.81329226063507178E+01  3.95637978119365963E+00  3.63379722603068223E-01  3.31005349725370795E-02
  388.000000  2.92346186350608077E+04  2.29670340286845203E+04  4.25455100174079325E+03  1.78174139894897962E+03  1.91223990829020721E+02  3.65609681307383454E+01  3.14847525758552349E+00  3.33407847533404689E-01  2.53636216329423021E-02
  390.000000  3.05262319812032147E+04  2.43236115316019204E+04  4.17936740659898805E+03  1.81516404863688035E+03  1.69202867817680158E+02  3.59374210454326217E+01  2.61187240505641149E+00  3.16619420448996824E-01  2.02136768072420023E-02
  392.000000  3.19657364431664100E+04  2.57331007325919563E+04  4.17647433936629659E+03  1.86306166154960306E+03  1.54658102156666871E+02  3.58742911990415578E+01  2.24317752472690968E+00  3.07481344746950158E-01  1.66574333711173236E-02
  394.000000  3.35101979743627817E+04  2.71868500176624111E+04  4.21956475370706812E+03  1.92041090112840880E+03  1.44914701236813897E+02  3.61581974179714365E+01  1.98228543800650159E+00  3.02996162568281213E-01  1.41216095467087011E-02
  396.000000  3.51266567325500146E+04  2.86741640970147564E+04  4.29134185433199855E+03  1.98405914247124110E+03  1.38321621484176262E+02  3.66636338464612734E+01  1.79268325684737917E+00  3.01439283511381106E-01  1.22608610227814396E-02
  398.000000  3.67863546378137180E+04  3.01819489900037806E+04  4.37950354270411117E+03  2.05181793503262088E+03  1.33808760759890873E+02  3.73115605924157023E+01  1.65123046223246428E+00  3.01759662182476851E-01  1.08585964827945455E-02
  400.000000  3.84618035835816627E+04  3.16946422424435295E+04  4.47459948070895916E+03  2.12200878895522374E+03  1.30648689364120003E+02  3.80486543838735543E+01  1.54267323635847631E+00  3.03280572071863264E-01  9.77391752946485393E-03
  402.000000  4.01254645378854038E+04  3.31944155684431171E+04  4.56888540479453968E+03  2.19323145756237454E+03  1.28324580893520903E+02  3.88364762524416278E+01  1.45659468397478209E+00  3.05543095618998894E-01  8.91215981041296526E-03
  404.000000  4.17494509199964814E+04  3.46616589671496477E+04  4.65573926359261986E+03  2.26424950448594836E+03  1.26455425983365259E+02  3.96456643576142298E+01  1.38566540439069996E+00  3.08221061521466833E-01  8.20796136240940603E-03
  406.000000  4.33059447753014683E+04  3.60757425976631785E+04  4.72941099807155842E+03  2.33394172982651889E+03  1.24753346521245305E+02  4.04528005752068225E+01  1.32461396468346737E+00  3.11073452356895153E-01  7.61522671777326368E-03
  408.000000  4.47681134984893579E+04  3.74160179891605076E+04  4.78497504157981621E+03  2.40129167924730700E+03  1.22999414809314700E+02  4.12387471110327439E+01  1.26960838528933428E+00  3.13917184222561541E-01  7.10101186902560664E-03
  410.000000  4.61113305007136732E+04  3.86629739878224573E+04  4.81839951858687527E+03  2.46539788443788211E+03  1.21030191450003002E+02  4.19877886811865935E+01  1.21787688558075446E+00  3.16611153788681654E-01  6.64169590388465850E-03
  412.000000  4.73144874181642881E+04  3.97994180042509252E+04  4.82666707818585473E+03  2.52549219845183597E+03  1.18730220045291290E+02  4.26871822509391592E+01  1.16746804427516682E+00  3.19046427889846440E-01  6.22050727650630495E-03
  414.000000  4.83611733046569934E+04  4.08115243496004332E+04  4.80789439261608641E+03  2.58095623729250156E+03  1.16027408343960488E+02  4.33268611963455612E+01  1.11709018015547090E+00  3.21139571110338362E-01  5.82585640873111224E-03
  416.000000  4.92405114076911414E+04  4.16895916062783290E+04  4.76140873823612128E+03  2.63132835396486462E+03  1.12889303953512695E+02  4.38991345091650516E+01  1.06599324744997936E+00  3.22827354670156774E-01  5.45014703284296166E-03
  418.000000  4.99474972376147125E+04  4.24283860058782957E+04  4.68775431335880603E+03  2.67629652065601022E+03  1.09319079691755121E+02  4.43982955285043843E+01  1.01387171270670873E+00  3.24061915665280864E-01  5.08887297734628239E-03
  420.000000  5.04827682208717597E+04  4.30270131134549156E+04  4.58861797315893637E+03  2.71567598496080018E+03  1.05350707302803627E+02  4.48201187340441152E+01  9.60777340633662269E-01  3.24806027257183050E-01  4.73989237349116757E-03
  422.000000  5.08518374250503039E+04  4.34883410769227849E+04  4.46668118389531446E+03  2.74937409282247063E+03  1.01043325869851316E+02  4.51612761910939540E+01  9.07037965991046802E-01  3.25028557603268542E-01  4.40282518514734447E-03
  424.000000  5.10639171183346189E+04  4.38180754521467388E+04  4.32541827655089583E+03  2.77734753179846166E+03  9.64751543829839022E+01  4.54187419313797349E+01  8.53182526559986942E-01  3.24700446977223334E-01  4.07855062154137589E-03
  426.000000  5.11305203267288598E+04  4.40236405220130982E+04  4.16886683196342528E+03  2.79955886896490301E+03  9.17374008274855015E+01  4.55892686537386851E+01  7.99873891165598150E-01  3.23791622669217793E-01  3.76879237550652689E-03
  428.000000  5.10640483492966450E+04  4.41130458484076298E+04  4.00139202196236147E+03  2.81593941590243321E+03  8.69284521110491539E+01  4.56690165093289906E+01  7.47849407895019858E-01  3.22269221338417455E-01  3.47577461086995797E-03
  430.000000  5.08765505891747671E+04  4.40939103980308209E+04  3.82745310423705769E+03  2.82636431686231390E+03  8.21482130673480526E+01  4.56533926256741864E+01  6.97865097895427167E-01  3.20097339412035220E-01  3.20191424589035640E-03
  432.000000  5.05787915370015980E+04  4.39727867945374019E+04  3.65136112038846977E+03  2.83064373700782835E+03  7.74919335573816142E+01  4.55371290961162316E+01  6.50634586776194013E-01  3.17238333207449874E-01  2.94949441754073375E-03
  434.000000  5.01796943145862897E+04  4.37548790976822420E+04  3.47700338676617775E+03  2.82853153124297796E+03  7.30425783402840665E+01  4.53145927733854776E+01  6.06752035883217911E-01  3.13655484919836469E-01  2.72026042008156757E-03
  436.000000  4.96861658076392487E+04  4.34441727672437264E+04  3.30752292645641683E+03  2.81975000404307457E+03  6.88613957200515756E+01  4.49802864500022324E+01  5.66596132971896926E-01  3.09316666595372325E-01  2.51492640804729670E-03
  438.000000  4.91032558224293316E+04  4.30438862066380389E+04  3.14499857535927094E+03  2.80402642253699696E+03  6.49783814944921261E+01  4.45294703906811336E+01  5.30234819210615216E-01  3.04198488492971209E-01  2.33270215051552569E-03
  440.000000  4.84345678137857321E+04  4.25570326505240009E+04  2.99025703567369465E+03  2.78113434532934298E+03  6.13871307360454708E+01  4.39588106604255060E+01  4.97379433890392519E-01  2.98290333665736873E-01  2.17109465674048333E-03
  442.000000  4.76828230105559996E+04  4.19868363481452106E+04  2.84297737465815635E+03  2.75093198519728594E+03  5.80492802443276190E+01  4.32669566748880712E+01  4.67441689719542364E-01  2.91597697357419638E-01  2.02624905681527247E-03
  444.000000  4.68504802660631831E+04  4.13368692304827346E+04  2.70212880490511589E+03  2.71339202518672801E+03  5.49094953374127073E+01  4.24549730930592446E+01  4.39698834310466746E-01  2.84144393605820500E-01  1.89383021490952485E-03
  446.000000  4.59403247109808071E+04  4.06110061827573445E+04  2.56656448106473408E+03  2.66862144594304891E+03  5.19147704428625545E+01  4.15265906792491322E+01  4.13496621144603393E-01  2.75973413018802627E-01  1.77005941279924275E-03
  448.000000  4.49559545124975775E+04  3.98134225774277511E+04  2.43548525241450488E+03  2.61687258193716298E+03  4.90286398577266240E+01  4.04882714247185760E+01  3.88390634122246337E-01  2.67146406650922819E-01  1.65239493905064319E-03
  450.000000  4.39021159276962208E+04  3.89487575588363907E+04  2.30860454209396175E+03  2.55854608522755416E+03  4.62351908450170797E+01  3.93490926985343776E+01  3.64176489400281911E-01  2.57741879424670917E-01  1.53962593741218496E-03
  452.000000  4.27848622811246823E+04  3.80223769691459529E+04  2.18605514631488268E+03  2.49418485782995140E+03  4.35347326105280104E+01  3.81204578577110951E+01  3.40833580736560338E-01  2.47852252710193566E-01  1.43153220991440043E-03
  454.000000  4.16115390677248943E+04  3.70405833808295356E+04  2.06818834945979870E+03  2.42445801578620103E+03  4.09363203105233922E+01  3.68156532205787101E+01  3.18439649942553360E-01  2.37580052664592589E-01  1.32841565241367961E-03
  456.000000  4.03906197224680800E+04  3.60106670568894478E+04  1.95539108930547786E+03  2.35013567340981126E+03  3.84512478683562335E+01  3.54492914725321810E+01  2.97099221049978934E-01  2.27033579880691810E-01  1.23072153131788351E-03
  458.000000  3.91314311318271502E+04  3.49407813595772823E+04  1.84797242906762131E+03  2.27205722635693701E+03  3.60890577206527823E+01  3.40366970836141007E+01  2.76900737077658166E-01  2.16322466359204157E-01  1.13881760935229050E-03
  460.000000  3.78438140229573110E+04  3.38396872138024701E+04  1.74611639545328148E+03  2.19109677066539280E+03  3.38558449879060319E+01  3.25932928977382872E+01  2.57898739855492110E-01  2.05553505208536741E-01  1.05290546323710105E-03
  462.000000  3.65377621516493673E+04  3.27164305128585984E+04  1.64987842612305212E+03  2.10812922661700077E+03  3.17540347456852672E+01  3.11340395357438950E+01  2.40111697396819451E-01  1.94827059810577324E-01  9.73012073811369547E-04
  464.000000  3.52230776986701967E+04  3.15800096316453637E+04  1.55920353730968463E+03  2.02400002101491486E+03  2.97828829823052388E+01  2.96729651442482769E+01  2.23527304868195081E-01  1.84234250319984999E-01  8.99018476775546469E-04
