# Wavelength || Total || n=1 | n=2 | ...
  300.000000  2.89262954149233565E+03  2.32521586177989366E+03  6.49600289583171815E+01  4.69101893090715237E+02  1.43900497023018126E+01  1.80999905740699347E+01  5.66654591376692163E-01  2.85938064943445869E-01  9.12473071745945920E-03
  302.000000  3.03024953839591853E+03  2.44055011706745472E+03  6.90223594030659626E+01  4.86279979570999274E+02  1.49891019424660250E+01  1.85281562289482586E+01  5.81579710306556641E-01  2.89008351936709651E-01  9.23612074132422294E-03
  304.000000  3.17320009441619186E+03  2.56034939739758147E+03  7.34263660823839643E+01  5.03926002678938005E+02  1.56351298009243251E+01  1.89638706045981351E+01  5.97831800735017849E-01  2.92131211919956613E-01  9.36483911090802042E-03
  306.000000  3.32175243803960620E+03  2.68481452209057625E+03  7.82085377783231621E+01  5.22067582650498821E+02  1.63333218563292810E+01  1.94080848569090101E+01  6.15553690631496009E-01  2.95322657830427937E-01  9.51245850699477570E-03
  308.000000  3.47620014860032416E+03  2.81415987559415635E+03  8.34106377549797458E+01  5.40734964087974504E+02  1.70896345378851144E+01  1.98618460229277041E+01  6.34909687944874790E-01  2.98600107857523112E-01  9.68080659868231740E-03
  310.000000  3.63686150280979973E+03  2.94861435540405091E+03  8.90806499250902419E+01  5.59961307889161844E+02  1.79109336235353531E+01  2.03263116445713088E+01  6.56089619946339742E-01  3.01982688994984871E-01  9.87201444928535905E-03
  312.000000  3.80408220722703936E+03  3.08842240864327141E+03  9.52739297048879052E+01  5.79783039284620600E+02  1.88051675964050737E+01  2.08027679863178179E+01  6.79313812458270716E-01  3.05491622432970178E-01  1.00885766454588705E-02
  314.000000  3.97823860519489745E+03  3.23384516981281195E+03  1.02054612145525979E+02  6.00240265495519111E+02  1.97815814372266736E+01  2.12926528868903375E+01  7.04839273151902646E-01  3.09150717170637190E-01  1.03334266013530782E-02
  316.000000  4.15974147293915485E+03  3.38516171529562280E+03  1.09497345654508933E+02  6.21377280688984229E+02  2.08509821553371886E+01  2.17975846720417472E+01  7.32967431962848082E-01  3.12987008973814262E-01  1.06100317231105010E-02
  318.000000  4.34904055506817713E+03  3.54267045444221503E+03  1.17689440757408121E+02  6.43243181624292561E+02  2.20260710993985214E+01  2.23193991161772836E+01  7.64053916085690843E-01  3.17031597716871394E-01  1.09225148829536437E-02
  320.000000  4.54663003858016600E+03  3.70669068308083115E+03  1.26733552020440527E+02  6.65892625344650583E+02  2.33218632810375617E+01  2.28601972679813237E+01  7.98521013830620352E-01  3.21320760174301612E-01  1.12758112202723058E-02
  322.000000  4.75305523255558001E+03  3.87756433398813397E+03  1.36751050521481034E+02  6.89386771529787325E+02  2.47562212519677445E+01  2.34224082015654567E+01  8.36873737194825496E-01  3.25897452347974681E-01  1.16758731020720034E-02
  324.000000  4.96892081692249303E+03  4.05565797172160546E+03  1.47886298594984140E+02  7.13794468333493455E+02  2.63505415126697109E+01  2.40088726746771393E+01  8.79720769451615925E-01  3.30813373738077121E-01  1.21299418726175442E-02
  326.000000  5.19490116184690396E+03  4.24136509870508689E+03  1.60312114604804151E+02  7.39193764318582112E+02  2.81306465867665842E+01  2.46229567069159465E+01  9.27802150597600517E-01  3.36131860087468703E-01  1.26469140633909283E-02
  328.000000  5.43175342132294645E+03  4.43510886976417532E+03  1.74236823149906428E+02  7.65673864787475168E+02  3.01279583144754746E+01  2.52687090082533068E+01  9.82026427322451823E-01  3.41932027079125622E-01  1.32378442589371533E-02
  330.000000  5.68033440597867411E+03  4.63734536071833008E+03  1.89913440514782337E+02  7.93337705669063780E+02  3.23810617860697789E+01  2.59510844053203797E+01  1.04352138073677803E+00  3.48314853412741265E-01  1.39166509577000833E-02
  332.000000  5.94162270050065672E+03  4.84856761629215998E+03  2.07651769812557319E+02  8.22305404838158097E+02  3.49378217444895895E+01  2.66762696007406710E+01  1.11370471924462633E+00  3.55412359790530485E-01  1.47011335163245941E-02
  334.000000  6.21674821328545386E+03  5.06931083777879485E+03  2.27834512320325132E+02  8.52718992142816660E+02  3.78582966717042382E+01  2.74521729931124874E+01  1.19438500141907933E+00  3.63401893447271140E-01  1.56144838337851071E-02
  336.000000  6.50703251408788583E+03  5.30015930734231824E+03  2.50939001457784315E+02  8.84749058184748264E+02  4.12188328125866406E+01  2.82891875523561964E+01  1.28790997407130270E+00  3.72529143430598342E-01  1.66876205910548511E-02
  338.000000  6.81404526934676505E+03  5.54175606862172663E+03  2.77566935498062321E+02  9.18604381139193265E+02  4.51179543113668160E+01  2.92014275673241563E+01  1.39739253954145304E+00  3.83146703865919591E-01  1.79629656836265243E-02
  340.000000  7.13968545444203846E+03  5.79481712858208175E+03  3.08485702723480188E+02  9.54546360124783632E+02  4.96850830867407467E+01  3.02088267838762761E+01  1.52707061611964523E+00  3.95781612666581073E-01  1.95009122891857262E-02
  342.000000  7.48630183835707430E+03  6.06015303872917684E+03  3.44686873091461734E+02  9.92911572692991626E+02  5.50939065295384083E+01  3.13408835245626811E+01  1.68291239826862071E+00  4.11259711263037342E-01  2.13916798100798194E-02
  344.000000  7.85687579215761161E+03  6.33870038577836658E+03  3.87470563310379077E+02  1.03414891610633549E+03  6.15837734627713189E+01  3.26437287188954954E+01  1.87369814081192088E+00  4.30947925899520523E-01  2.37787141520274803E-02
  346.000000  8.25529085994343041E+03  6.63155028152104751E+03  4.38567629617463467E+02  1.07888567809591746E+03  6.94958246868432354E+01  3.41942699747789902E+01  2.11300810083009782E+00  4.57260105137820227E-01  2.69078414087375387E-02
  348.000000  8.68667236996299835E+03  6.93988625272825448E+03  5.00309426391246689E+02  1.12806082116134576E+03  7.93384866254487378E+01  3.61294369650112088E+01  2.42180545283176718E+00  4.94953946499125941E-01  3.11866923596941757E-02
  350.000000  9.15773128989955148E+03  7.26461844125314565E+03  5.75854541120640988E+02  1.18324132833663884E+03  9.19134918813480368E+01  3.86882944676739129E+01  2.82439024412737449E+00  5.54137093382411572E-01  3.66655025909957757E-02
  352.000000  9.67717922891323906E+03  7.60545393607078950E+03  6.69596950542453669E+02  1.24749485606501662E+03  1.08499784901379769E+02  4.20966712277151061E+01  3.35687674625249777E+00  6.37073005253664393E-01  4.30803543761377333E-02
  354.000000  1.02574004724253737E+04  7.95958220559032543E+03  7.87846810670961531E+02  1.32761003808234022E+03  1.31134411910923518E+02  4.63440399121371485E+01  4.11890383909483582E+00  7.11416007791603966E-01  5.26464117988286323E-02
  356.000000  1.09284208338899516E+04  8.32983660291172964E+03  9.40182527594688281E+02  1.43531189157755216E+03  1.63717123836113473E+02  5.31759646442522040E+01  5.30102805936894761E+00  8.26918600169396223E-01  6.87766660774197930E-02
  358.000000  1.17147855295321679E+04  8.71161385878398687E+03  1.14271664355484540E+03  1.57784258187530827E+03  2.09697098462375919E+02  6.47413305137809800E+01  7.00920807314660088E+00  1.07234249726019426E+00  9.24657714622506566E-02
  360.000000  1.25644509552161689E+04  9.09135763970918924E+03  1.42369157748665748E+03  1.70949679092121141E+03  2.56321437447374194E+02  7.38563357758308427E+01  8.36088143038154463E+00  1.25826030257042865E+00  1.08032142953669821E-01
  362.000000  1.35130394188070095E+04  9.50902102286575973E+03  1.82336451231145884E+03  1.79986872592190343E+03  2.96387661629192451E+02  7.42606011410130975E+01  8.82112916366646616E+00  1.20948151623835876E+00  1.06284257775432739E-01
  364.000000  1.47600082423191161E+04  9.99164045292083574E+03  2.40321079670473637E+03  1.91703952654197997E+03  3.62168908886767213E+02  7.47436138580142142E+01  9.94942604438573319E+00  1.14363479202011886E+00  1.11882570376452550E-01
  366.000000  1.64927668685294666E+04  1.05362754964271280E+04  3.28191148587786211E+03  2.10297178245281611E+03  4.77820775640764509E+02  7.99462285035440061E+01  1.25354837092069573E+01  1.17076733301542757E+00  1.34848585130237203E-01
  368.000000  1.90033473007840767E+04  1.11642158575271314E+04  4.66706786157945771E+03  2.39113882070982936E+03  6.70945102623347225E+02  9.13352789370835012E+01  1.71559248444408503E+01  1.30876890525586331E+00  1.79685657535829768E-01
  370.000000  2.27528420218593419E+04  1.19313862947892903E+04  6.85733065090081527E+03  2.84182757641550870E+03  9.84197091713709028E+02  1.11484542915424498E+02  2.47722806717277280E+01  1.58864387340071511E+00  2.54940579467447859E-01
  372.000000  2.79536380082933392E+04  1.29154513254170379E+04  9.89843530768124765E+03  3.53037675286130434E+03  1.42777913900852218E+03  1.43632318359273398E+02  3.55501640834605652E+01  2.05185641373576777E+00  3.61144468762759130E-01
  374.000000  3.24995998023423672E+04  1.40131736623895958E+04  1.21754050065191623E+04  4.31070302198295030E+03  1.77401177318347482E+03  1.79489142483430157E+02  4.38135364381669774E+01  2.56324645970737564E+00  4.40412885877975169E-01
  376.000000  3.16584534851924618E+04  1.46714410715185059E+04  1.08391560577880518E+04  4.32630130793065837E+03  1.60274316494548862E+03  1.76606036144969295E+02  3.93296343400909620E+01  2.48449025309550864E+00  3.91722271597014005E-01
  378.000000  2.69466731804106566E+04  1.48889735463992274E+04  7.36907633779629941E+03  3.41935792512437183E+03  1.11117973865974000E+03  1.28946943837187490E+02  2.71254978649307645E+01  1.74526268256665862E+00  2.67928046334530934E-01
  380.000000  2.32289369438667854E+04  1.51944466971787060E+04  4.57648125606492249E+03  2.64355999689071086E+03  7.07685610752914499E+02  8.82687957365745604E+01  1.72039006216217558E+01  1.12206229462097729E+00  1.68624326716209499E-01
  382.000000  2.13292689680172189E+04  1.56866563510402666E+04  2.86231293548702570E+03  2.24512755181705234E+03  4.56991344149590816E+02  6.62173694696889754E+01  1.10745751479195551E+01  7.81071318803422399E-01  1.07769586868552217E-01
  384.000000  2.06024199408970162E+04  1.63105852768155255E+04  1.84785166751440602E+03  2.07339265514697763E+03  3.07195243766903900E+02  5.52874725626878742E+01  7.42891214204454187E+00  6.06904390573310026E-01  7.18085578987514850E-02
  386.000000  2.05421150164978608E+04  1.70262807766830883E+04  1.22882784545866593E+03  2.01626653811769393E+03  2.15038816994051473E+02  4.99397079842746479E+01  5.19546032537505731E+00  5.15963623902618296E-01  4.99073108042394076E-02
  388.000000  2.08737448196801961E+04  1.78138645342172786E+04  8.33743665466278571E+02  2.01861236419692523E+03  1.55812822490520233E+02  4.74422400114096305E+01  3.76599750288269197E+00  4.67226641213970062E-01  3.59691536890141619E-02
  390.000000  2.14542551308587645E+04  1.86639854717358830E+04  5.70220192253168875E+02  2.05419029245548427E+03  1.16091809435092628E+02  4.64882014546275286E+01  2.81133919048042236E+00  4.41111649854496746E-01  2.67126841707878218E-02
  392.000000  2.22072110743120247E+04  1.95724141146693255E+04  3.87343182583030568E+02  2.11000493823527995E+03  8.84255757440783583E+01  4.64257137925317025E+01  2.14935918624299127E+00  4.27859826858333292E-01  2.03302746810123114E-02
  394.000000  2.30901729443960903E+04  2.05374467053202534E+04  2.55915692371010550E+02  2.17926954861348577E+03  6.85164304781890650E+01  4.69111869338250642E+01  1.67526671221498336E+00  4.22328225634478360E-01  1.57857414720938491E-02
  396.000000  2.40786489496612849E+04  2.15586198649182988E+04  1.58484740607190957E+02  2.25824889250177603E+03  5.37816456463059396E+01  4.77534570907254761E+01  1.32623375328236448E+00  4.21655199643309053E-01  1.24599440658589543E-02
  398.000000  2.51579477204433133E+04  2.26360185203166766E+04  8.42045646121233773E+01  2.34477837040121403E+03  4.26084024952707097E+01  4.88406147455560884E+01  1.06311274540748757E+00  4.24166790123443604E-01  9.96833693945617036E-03
  400.000000  2.63188390326184162E+04  2.37698574572156977E+04  2.60959443114229579E+01  2.43753011579793065E+03  3.39541629148866022E+01  5.01037996958406850E+01  8.60652126851879862E-01  4.28836915953906161E-01  8.06363983090815049E-03
  402.000000  2.75551112739041164E+04  2.49601901657120216E+04 -2.04728810852846763E+01  2.53562794138268328E+03  2.71240738865254762E+01  5.14983286693273001E+01  7.02056505368750194E-01  4.35006957494260604E-01  6.58187598123047626E-03
  404.000000  2.88621076543355884E+04  2.62066746908085661E+04 -5.86593693340091562E+01  2.63843311460069162E+03  2.16423673911083831E+01  5.29933576824728192E+01  5.75848838051782552E-01  4.42233026011093155E-01  5.41132269364528757E-03
  406.000000  3.02357836304740122E+04  2.75083611784024724E+04 -9.06651771451390829E+01  2.74541749248719361E+03  1.71755214286027247E+01  5.45659443441276579E+01  4.73997847406377626E-01  4.50199086791658931E-01  4.47402255630088234E-03
  408.000000  3.16720491559876100E+04  2.88634830583193980E+04 -1.18052558626005265E+02  2.85608309020280467E+03  1.34849445597861806E+01  5.61974759291755177E+01  3.90765645088783808E-01  4.58665530292799495E-01  3.71442706940675093E-03
  410.000000  3.31662703004676150E+04  3.02692432306455921E+04 -1.41941195272870431E+02  2.96990726502510461E+03  1.03970702452587673E+01  5.78714210271650984E+01  3.21978974618664870E-01  4.67437597833994689E-01  3.09222490931808543E-03
  412.000000  3.47128633401696716E+04  3.17215926025512126E+04 -1.63131338543805015E+02  3.08630269140639803E+03  7.78405131232687975E+00  5.95718530000011555E+01  2.64557373138132046E-01  4.76345369727743717E-01  2.57770066994395365E-03
  414.000000  3.63049473653065143E+04  3.32150028885964857E+04 -1.82179216612279845E+02  3.20458654584112719E+03  5.55111926503278053E+00  6.12824470048359800E+01  2.16201766135471429E-01  4.85230777686364023E-01  2.14866749725682506E-03
  416.000000  3.79340415399832709E+04  3.47422397037751216E+04 -1.99439394472710234E+02  3.32395624563132696E+03  3.62828203372753944E+00  6.29857893183369484E+01  1.75186181009790026E-01  4.93939111241603723E-01  1.78840521097433031E-03
  418.000000  3.95898066219673346E+04  3.62941461014135930E+04 -2.15082206184865811E+02  3.44347083573941791E+03  1.96496037299255266E+00  6.46629150184804331E+01  1.40217748175890305E-01  5.02313601775530305E-01  1.48425776897959734E-03
  420.000000  4.12598401933885107E+04  3.78594510587613768E+04 -2.29090606606262156E+02  3.56203823910136134E+03  5.26704381001343203E-01  6.62930354468722953E+01  1.10343325332517589E-01  5.10192304701793886E-01  1.22667412852462136E-03
  422.000000  4.29295425363511968E+04  3.94246221829256829E+04 -2.41239163880446057E+02  3.67840933497029573E+03 -7.06565825705826267E-01  6.78534440014610425E+01  8.48887364906861092E-02  5.17406870056219437E-01  1.00855335679162763E-03
  424.000000  4.45820754609900687E+04  4.09737874954698564E+04 -2.51058755779635590E+02  3.79118031774111159E+03 -1.74122928431817181E+00  6.93196044306166215E+01  6.34206128587204154E-02  5.23783001371733392E-01  8.24798205900891565E-04
  426.000000  4.61984392641292798E+04  4.24887584106897120E+04 -2.57795129601267547E+02  3.89880505204882456E+03 -2.57003844097104750E+00  7.06654330877092605E+01  4.57218372678672436E-02  5.29142507288522856E-01  6.72000719673467050E-04
  428.000000  4.77576925689168784E+04  4.39491962358958262E+04 -2.60379879469749596E+02  3.99961917951019768E+03 -3.17237867224607051E+00  7.18637869445231274E+01  3.17696472450715792E-02  5.33306878559873576E-01  5.48182512535710302E-04
  430.000000  4.92373350996486697E+04  4.53329781620083741E+04 -2.57449978856862629E+02  4.09187752083645591E+03 -3.51602287086260201E+00  7.28871630644078010E+01  2.17006818169438835E-02  5.36102290847831453E-01  4.52494496636649565E-04
  432.000000  5.06138636148126025E+04  4.66168312122062343E+04 -2.47473136268783037E+02  4.17380575885311373E+03 -3.56231484233772644E+00  7.37086026290082259E+01  1.57416259353052868E-02  5.37365850934544143E-01  3.84758503013626809E-04
  434.000000  5.18634958902357612E+04  4.77772962546926501E+04 -2.29043902674073422E+02  4.24366622590549468E+03 -3.27684203244500738E+00  7.43027726087109954E+01  1.40842156165168816E-02  5.36952777394507197E-01  3.44742408373820207E-04
  436.000000  5.29630375774071290E+04  4.87920227754023726E+04 -2.01373440381198009E+02  4.29983539439675951E+03 -2.64609815321271302E+00  7.46471691782743676E+01  1.67017563343330802E-02  5.34744042462302338E-01  3.31165340237489405E-04
  438.000000  5.38908446856002556E+04  4.96412451239840084E+04 -1.64868697165770897E+02  4.34088709020758415E+03 -1.69632664895382290E+00  7.47233496250751443E+01  2.31511041970375898E-02  5.30653817597336319E-01  3.40676513683725699E-04
  440.000000  5.46278153284360233E+04  5.03090925436096950E+04 -1.21519167574073521E+02  4.36567146732667788E+03 -5.05044709591422558E-01  7.45180640211137586E+01  3.24625020702425243E-02  5.24635917850596378E-01  3.67342281395247050E-04
  442.000000  5.51583335573392833E+04  5.07843142796190368E+04 -7.47492394921971197E+01  4.37337837858072089E+03  8.05669885232755845E-01  7.40241483814280343E+01  4.32287381096719200E-02  5.16688435204100793E-01  4.03191733842135885E-04
  444.000000  5.54710871702463410E+04  5.10602456183753166E+04 -2.86350324831558893E+01  4.36357782224609491E+03  2.09648012072794332E+00  7.32410780522972829E+01  5.39081268791264251E-02  5.06855967780212469E-01  4.39840397046874644E-04
  446.000000  5.55596871683298741E+04  5.11342930890709977E+04  1.31757485452784433E+01  4.33623771666649282E+03  3.24656334045971828E+00  7.21751477247199347E+01  6.32033351620479994E-02  4.95229214688623465E-01  4.70432069586874523E-04
  448.000000  5.54230271391148490E+04  5.10074512462149796E+04  4.82807934721168621E+01  4.29172376115181487E+03  4.17929217425721689E+00  7.08392942535046757E+01  7.03189511479115903E-02  4.81942013811020531E-01  4.90883210531405795E-04
  450.000000  5.50653400944343884E+04  5.06841453271899227E+04  7.57474592035343335E+01  4.23078429644503376E+03  4.86775835622354869E+00  6.92525873603851778E+01  7.49998513529183675E-02  4.67166056227689641E-01  4.99971695223635376E-04
  452.000000  5.44959412037637085E+04  5.01722988662322168E+04  9.58307952960687572E+01  4.15451920379812600E+03  5.32392538867311682E+00  6.74394107524023241E+01  7.74001015818711335E-02  4.51103618768814996E-01  4.98575869439762173E-04
  454.000000  5.37286820030046292E+04  4.94833395193860488E+04  1.09488507948045779E+02  4.06433140085462082E+03  5.58183484580499556E+00  6.54283755273677770E+01  7.78969480519533380E-02  4.33978820526069786E-01  4.88674165853037498E-04
  456.000000  5.27811745297332964E+04  4.86319393807447050E+04  1.17944977150844920E+02  3.96186260527443028E+03  5.68308577849205498E+00  6.32510444375378285E+01  7.69357179552370984E-02  4.16028089615575358E-01  4.72539715339850841E-04
  458.000000  5.16738648425779102E+04  4.76354587724663652E+04  1.22406360633773900E+02  3.84891860220546187E+03  5.66765494765461586E+00  6.09405745228815334E+01  7.49349191833694334E-02  3.97490618974132903E-01  4.52263617208451506E-04
  460.000000  5.04290424649286942E+04  4.65131804030580388E+04  1.23919775472385140E+02  3.72739104738960168E+03  5.56957430028289924E+00  5.85303918232467666E+01  7.22437855522879285E-02  3.78599546415953281E-01  4.29553178890624643E-04
  462.000000  4.90698670786622097E+04  4.52854569304849865E+04  1.23329610661636082E+02  3.59918264630157955E+03  5.41578140427308519E+00  5.60529966239599347E+01  6.91330484088372305E-02  3.59574438274183339E-01  4.05699087995826425E-04
  464.000000  4.76194795572247313E+04  4.39728803966258929E+04  1.21285679834992465E+02  3.46614110813735806E+03  5.22660366531564780E+00  5.35389697011457457E+01  6.58021951768052449E-02  3.40615441683774112E-01  3.81623171161370384E-04
