# Wavelength || Total || n=1 | n=2 | ...
  300.000000  2.40883354576627607E+03  2.26702671378510468E+03  1.54074658984565183E+01  1.25404767870010446E+02  7.70252188190124198E-01  2.23075961263672490E-01  1.20363633188958017E-03  6.61140322697805003E-05  3.12887045091513353E-07
  302.000000  2.53020592166831602E+03  2.38447834558707063E+03  1.61575752096441221E+01  1.28556522509604321E+02  7.89211874678841019E-01  2.23000759499187684E-01  1.20098154418870869E-03  6.44423036480246971E-05  3.03971279657104519E-07
  304.000000  2.65611339019877869E+03  2.50636929334124534E+03  1.69590444445398525E+01  1.31751384033595116E+02  8.09466877190189615E-01  2.22938560749871284E-01  1.19980851346567570E-03  6.28372098309428991E-05  2.95735419731992405E-07
  306.000000  2.78676607805466301E+03  2.63289588115955303E+03  1.78180062922021598E+01  1.34996829218554353E+02  8.31194988384367783E-01  2.22904545753009636E-01  1.20026152071299810E-03  6.13005221523796014E-05  2.88173388916280459E-07
  308.000000  2.92238945218256958E+03  2.76426823406732638E+03  1.87414792900973843E+01  1.38300965808136169E+02  8.54596394616818023E-01  2.22914008828062504E-01  1.20249845502982673E-03  5.98338291543116244E-05  2.81281298436922184E-07
  310.000000  3.06322552360637428E+03  2.90071123340086206E+03  1.97375294066064342E+01  1.41672614842462536E+02  8.79898023247638217E-01  2.22982524939107724E-01  1.20669458291476216E-03  5.84386154734436390E-05  2.75058064483908488E-07
  312.000000  3.20953419205926775E+03  3.04246555923256983E+03  2.08154673004231405E+01  1.45121410105548449E+02  9.07358845953093907E-01  2.23126141920193255E-01  1.21304700493943892E-03  5.71163419600096185E-05  2.69506082373089596E-07
  314.000000  3.36159475485644271E+03  3.18978883005253419E+03  2.19860905307287240E+01  1.48657918363371095E+02  9.37276392247065493E-01  2.23361604396204255E-01  1.22178000341381741E-03  5.58685294605547865E-05  2.64631989831385043E-07
  316.000000  3.51970760894357863E+03  3.34295685151720318E+03  2.32619828000059492E+01  1.52293785092485734E+02  9.69994806983029978E-01  2.23706618055589196E-01  1.23315154817571363E-03  5.46968493223067245E-05  2.60447559616906502E-07
  318.000000  3.68419618219687663E+03  3.50226498796962778E+03  2.46578860948690490E+01  1.56041911751060553E+02  1.00591489398619238E+00  2.24180165822776084E-01  1.24746131498768226E-03  5.36032245787018417E-05  2.56970773064629834E-07
  320.000000  3.85540913941723693E+03  3.66802967270710815E+03  2.61911667350612731E+01  1.59916672441496303E+02  1.04550673721701548E+00  2.24802891487017320E-01  1.26506069255400929E-03  5.25899470901901349E-05  2.54227142501188683E-07
  322.000000  4.03372292081690057E+03  3.84059007563758723E+03  2.78824034043270501E+01  1.63934180226681718E+02  1.08932569880746177E+00  2.25597572002361108E-01  1.28636542537812512E-03  5.16598178544707125E-05  2.52251374106691483E-07
  324.000000  4.21954468719748184E+03  4.02030994999112954E+03  2.97561350349404705E+01  1.68112616637722454E+02  1.13803288668301028E+00  2.26589707812022312E-01  1.31187178419211190E-03  5.08163206062098909E-05  2.51089497300078662E-07
  326.000000  4.41331576783412220E+03  4.20757968289546989E+03  3.18418201580452980E+01  1.72472642411910073E+02  1.19242160404901831E+00  2.27808272493012970E-01  1.34217751011607780E-03  5.00638432512030476E-05  2.50801637743987265E-07
  328.000000  4.61551573603859015E+03  4.40281857719107575E+03  3.41750788267009327E+01  1.77037913769147735E+02  1.25345190201114920E+00  2.29286680920123748E-01  1.37800930087032944E-03  4.94079685405540426E-05  2.51465687707720154E-07
  330.000000  4.82666727527079365E+03  4.60647739195729901E+03  3.67993162237223999E+01  1.81835737403806945E+02  1.32229625493274949E+00  2.31064062593831221E-01  1.42025939035700963E-03  4.88558662298844179E-05  2.53182244693077862E-07
  332.000000  5.04734204619406773E+03  4.81904116205923583E+03  3.97678678366448253E+01  1.86897910149575296E+02  1.40040072698161500E+00  2.33186969824378615E-01  1.47003496964006751E-03  4.84168364209627765E-05  0.00000000000000000E+00
  334.000000  5.27816782118211904E+03  5.04103229016525529E+03  4.31468662864037711E+01  1.92261808118340326E+02  1.48956806351580728E+00  2.35711719459548608E-01  1.52872606341806507E-03  4.81030823731372115E-05  0.00000000000000000E+00
  336.000000  5.51983718975590546E+03  5.27301382477415700E+03  4.70191201500623635E+01  1.97971818749216737E+02  1.59207237188692963E+00  2.38707679299996672E-01  1.59810044363098511E-03  4.79308385202494345E-05  0.00000000000000000E+00
  338.000000  5.77311810712462011E+03  5.51559260937736235E+03  5.14894325278820801E+01  2.04081254630398746E+02  1.71082023369346570E+00  2.42261994274633796E-01  1.68043895198729241E-03  4.79220584536723762E-05  0.00000000000000000E+00
  340.000000  6.03886617415135879E+03  5.76942131489551957E+03  5.66919991978484887E+01  2.10654965064249240E+02  1.84958161566226731E+00  2.46486538775825381E-01  1.77873230640191978E-03  4.81069971539440069E-05  0.00000000000000000E+00
  342.000000  6.31803691070712193E+03  6.03519624543503505E+03  6.28008546705067090E+01  2.17773008376551161E+02  2.01332844492428720E+00  2.51528279942345723E-01  1.89697194031339085E-03  4.85282225146171583E-05  0.00000000000000000E+00
  344.000000  6.61169002383412499E+03  6.31364069101921359E+03  7.00448246984214791E+01  2.25536089360416582E+02  2.20874449832674280E+00  2.57584433444205396E-01  2.04057742807062107E-03  4.92468730113315362E-05  0.00000000000000000E+00
  346.000000  6.92095742889299891E+03  6.60544165514930773E+03  7.87291058387253315E+01  2.34074458954070991E+02  2.44502018726318626E+00  2.64921453834856546E-01  2.21695710490919101E-03  5.03526920888322971E-05  0.00000000000000000E+00
  348.000000  7.24691146427186050E+03  6.91106815336165710E+03  8.92667752413683075E+01  2.43565016514763727E+02  2.73515893588150050E+00  2.73872409106459325E-01  2.43582942093425016E-03  5.19796617542092964E-05  0.00000000000000000E+00
  350.000000  7.59029617178480657E+03  7.23041252686231928E+03  1.02228032690422083E+02  2.54270019580825533E+02  3.09823880345086078E+00  2.84588791340594116E-01  2.71098130167776426E-03  5.40751460417421487E-05  0.00000000000000000E+00
  352.000000  7.95114924653220896E+03  7.56222928022081214E+03  1.18427623407721001E+02  2.66630052679115636E+02  3.56310108364012468E+00  2.96054003105352459E-01  3.08009637948625887E-03  5.50414354573854794E-05  0.00000000000000000E+00
  354.000000  8.33090227360635436E+03  7.90597089604612211E+03  1.39065897625141986E+02  2.81383097412136124E+02  4.16957001947051165E+00  3.09159887150587398E-01  3.59811389733946316E-03  5.45024351157407885E-05  0.00000000000000000E+00
  356.000000  8.73634305323454464E+03  8.26542595372150208E+03  1.66049178058607396E+02  2.99583199698119586E+02  4.94435789447323959E+00  3.36058135902842781E-01  4.24565173987206512E-03  6.00741986738355087E-05  0.00000000000000000E+00
  358.000000  9.16811164719834778E+03  8.63598980483274499E+03  2.02668824627398351E+02  3.23256308610779399E+02  5.80516306557394302E+00  3.86637642340756316E-01  4.83315374037397716E-03  7.52657697374409603E-05  0.00000000000000000E+00
  360.000000  9.64758198485044522E+03  9.03398903595520824E+03  2.54184922732143207E+02  3.52434266629917431E+02  6.52222721046538112E+00  4.46489766651244013E-01  4.95121280102054674E-03  9.13432575369676862E-05  0.00000000000000000E+00
  362.000000  1.02109719056050490E+04  9.49282720274001258E+03  3.26834145954260748E+02  3.83245124630723240E+02  7.57730984373962357E+00  4.82839978210202303E-01  5.18693010288455002E-03  9.55279996491524862E-05  0.00000000000000000E+00
  364.000000  1.08527204186318304E+04  9.98964037526104403E+03  4.32591249989130972E+02  4.20300319797818702E+02  9.66333226797929967E+00  5.18722410660915734E-01  6.32124665313986683E-03  9.76585412625748323E-05  0.00000000000000000E+00
  366.000000  1.15891183419395566E+04  1.05094175886701541E+04  5.95030200452528675E+02  4.70956005751293503E+02  1.31261347038880665E+01  5.79867952001439368E-01  8.43846224510252756E-03  1.05947442835559787E-04  0.00000000000000000E+00
  368.000000  1.24680585523888276E+04  1.10511570626897101E+04  8.55118808110426016E+02  5.42395494329746612E+02  1.86955830160029350E+01  6.79608870437497736E-01  1.18725094553767223E-02  1.22863048043990247E-04  0.00000000000000000E+00
  370.000000  1.35457101943285561E+04  1.16004990516199159E+04  1.27413150781914919E+03  6.42652323974900469E+02  2.75761924676191619E+01  8.33677666460022948E-01  1.72876877847912246E-02  1.51295066377271756E-04  1.79766145014864611E-06
  372.000000  1.47718494293092899E+04  1.20914949186614904E+04  1.87223966291341253E+03  7.67000487412627763E+02  4.00441620797685047E+01  1.04525776151876859E+00  2.47453816248468239E-02  1.92563179885407981E-04  2.53566777460940835E-06
  374.000000  1.55980296675376831E+04  1.23582098563379277E+04  2.35453544676426827E+03  8.34355186831034189E+02  4.96947220468668931E+01  1.20399470263778885E+00  3.02306423178951324E-02  2.27163883486899179E-04  3.04874789208573266E-06
  376.000000  1.52670677620775768E+04  1.23965772488926814E+04  2.15361973964134449E+03  6.71027394819147048E+02  4.48049671408262000E+01  1.01140789498117289E+00  2.68046848125354994E-02  1.96345921186995585E-04  2.65786280655257504E-06
  378.000000  1.46392516898780214E+04  1.27025892715726241E+04  1.51283061749910053E+03  3.92236758581220442E+02  3.09994209813276811E+01  5.77281541497100537E-01  1.82249971826876633E-02  1.14705068737451407E-04  0.00000000000000000E+00
  380.000000  1.45881570599412771E+04  1.33607498787927489E+04  9.77363239371252348E+02  2.30031755855011454E+02  1.97141553870083435E+01  2.86589742351623655E-01  1.13839302663995313E-02  5.68626382433760563E-05  0.00000000000000000E+00
  382.000000  1.49717644790603226E+04  1.41486482098274646E+04  6.41169041785000331E+02  1.69060991160442484E+02  1.27256799842210970E+01  1.53312643542128230E-01  7.21492803598625977E-03  2.87316148290623906E-05  0.00000000000000000E+00
  384.000000  1.55745570888964921E+04  1.49741809203914800E+04  4.38619188956240407E+02  1.53090967181869615E+02  8.56381129302466704E+00  9.74193498208211772E-02  4.76585653109770288E-03  1.58675267622296497E-05  0.00000000000000000E+00
  386.000000  1.62957184572365841E+04  1.58216197456819482E+04  3.13100147384544073E+02  1.54907536297479567E+02  6.01262299892111951E+00  7.51111349282855834E-02  3.28385367014748285E-03  9.88509036271315600E-06  0.00000000000000000E+00
  388.000000  1.70939257185771676E+04  1.66938452763718597E+04  2.31892924779287540E+02  1.63737942356472615E+02  4.37962903369099266E+00  6.75917464092711806E-02  2.34722615046935703E-03  7.06329754735779210E-06  0.00000000000000000E+00
  390.000000  1.79522734866570427E+04  1.75965003835441166E+04  1.77089116016469887E+02  1.75326078307594912E+02  3.28936056223319140E+00  6.68126433644029433E-02  1.72982277679710299E-03  5.76049019609145220E-06  0.00000000000000000E+00
  392.000000  1.88639594045813828E+04  1.85347207414069271E+04  1.38694273409460891E+02  1.87940071158460029E+02  2.53383745735351606E+00  6.91684517852009101E-02  1.30747980962272960E-03  5.21758762074803620E-06  0.00000000000000000E+00
  394.000000  1.98265368226890860E+04  1.95126902635897022E+04  1.10915045918133941E+02  2.00864238557290776E+02  1.99329498036867525E+00  7.29653175560334849E-02  1.00926139004939405E-03  5.06464832838766469E-06  0.00000000000000000E+00
  396.000000  2.08394644016167513E+04  2.05337264786384039E+04  9.02545863496145131E+01  2.13809275944186794E+02  1.59588634784830496E+00  7.73762952031932238E-02  7.92928645085419037E-04  5.11284666715241381E-06  0.00000000000000000E+00
  398.000000  2.19029685004939020E+04  2.16003997250515531E+04  7.45202180380311887E+01  2.26669105697415432E+02  1.29682706168768758E+00  8.19870409190645855E-02  6.32342141612031602E-04  5.26215305047417575E-06  0.00000000000000000E+00
  400.000000  2.30174537974266750E+04  2.27145951669416827E+04  6.22888669935319186E+01  2.39415438041862444E+02  1.06722195785380847E+00  8.65872769265436104E-02  5.10756737246257221E-04  5.45807790715202537E-06  0.00000000000000000E+00
  402.000000  2.41831507420895832E+04  2.38775132514303878E+04  5.26081605668297811E+01  2.52049988712809835E+02  8.87848312349744706E-01  9.10702846372336422E-02  4.17112200453944270E-04  5.67036669183816487E-06  0.00000000000000000E+00
  404.000000  2.53998653131491992E+04  2.50896189377111477E+04  4.48231077497311148E+01  2.64581968395909541E+02  7.45567128608566665E-01  9.53823783483053883E-02  3.43903417579053696E-04  5.88203672415106196E-06  0.00000000000000000E+00
  406.000000  2.66667699486904094E+04  2.63505497820876772E+04  3.84721372493446339E+01  2.77017061033419623E+02  6.31179737914296268E-01  9.94965837065116682E-02  2.85914828233845345E-04  6.08351988442061114E-06  0.00000000000000000E+00
  408.000000  2.79822071642693227E+04  2.76589908716727550E+04  3.32227794960973881E+01  2.89351767857125651E+02  5.38107282485954075E-01  1.03398516279106359E-01  2.39444580433563118E-04  0.00000000000000000E+00  0.00000000000000000E+00
  410.000000  2.93434933196943275E+04  2.90125234299848817E+04  2.88307449396475342E+01  3.01570310298870197E+02  4.61554024737116542E-01  1.07078630857918314E-01  2.01815330402038077E-04  0.00000000000000000E+00  0.00000000000000000E+00
  412.000000  3.07467187239637933E+04  3.04074540477251394E+04  2.51132239070765593E+01  3.13642789713108300E+02  3.97963650724030893E-01  1.10527909876483477E-01  1.71057867447447001E-04  0.00000000000000000E+00  0.00000000000000000E+00
  414.000000  3.21865464349893264E+04  3.18386328058675244E+04  2.19310729042607058E+01  3.25524017170358206E+02  3.44657869249276938E-01  1.13735476143734457E-01  1.45701791139460590E-04  0.00000000000000000E+00  0.00000000000000000E+00
  416.000000  3.36560167511039108E+04  3.32992708588536552E+04  1.91767047743708048E+01  3.37152784200372878E+02  2.99591307352211789E-01  1.16687334005581581E-01  1.24634156591818708E-04  0.00000000000000000E+00  0.00000000000000000E+00
  418.000000  3.51463690342125046E+04  3.47807710978630057E+04  1.67657466296636244E+01  3.48451534512823571E+02  2.61182384796186162E-01  1.19365819937929066E-01  1.07002268184429094E-04  0.00000000000000000E+00  0.00000000000000000E+00
  420.000000  3.66468968146102343E+04  3.62725889986246402E+04  1.46312772254571470E+01  3.59326502039616969E+02  2.28195028527154897E-01  1.21749546218708107E-01  9.21457733964622488E-05  0.00000000000000000E+00  0.00000000000000000E+00
  422.000000  3.81448561260688075E+04  3.77621442153473399E+04  1.27199227678138769E+01  3.69668439367465112E+02  1.99655306406741923E-01  1.23813731162090379E-01  7.95486158342822964E-05  0.00000000000000000E+00  0.00000000000000000E+00
  424.000000  3.96254501443016852E+04  3.92348062701113959E+04  1.09893943088805308E+01  3.79354087417195387E+02  1.74792792702362476E-01  1.25530866774469924E-01  6.88047389730935059E-05  0.00000000000000000E+00  0.00000000000000000E+00
  426.000000  4.10719146886616145E+04  4.06739789755049933E+04  9.40724618674519419E+00  3.88248535614114417E+02  1.53000062393424396E-01  1.26871699849675362E-01  5.95935135825352002E-05  0.00000000000000000E+00  0.00000000000000000E+00
  428.000000  4.24657280311091527E+04  4.20613070487986697E+04  7.95072817957170042E+00  3.96208590171978017E+02  1.33805790974124289E-01  1.27806505816366267E-01  5.16621410939217305E-05  0.00000000000000000E+00  0.00000000000000000E+00
  430.000000  4.37869636985303732E+04  4.33770237399185717E+04  6.60754592571357424E+00  4.03087203573980673E+02  1.16857677252081668E-01  1.28306621870534626E-01  4.48129875781777616E-05  0.00000000000000000E+00  0.00000000000000000E+00
  432.000000  4.50147956516604172E+04  4.46004493927067888E+04  5.37704324497883945E+00  4.08738919930836119E+02  1.01910702460173225E-01  1.28346181311260771E-01  3.88940349970187080E-05  0.00000000000000000E+00  0.00000000000000000E+00
  434.000000  4.61281509891539681E+04  4.57106373496476663E+04  4.27072448114000736E+00  4.13026163060680517E+02  8.88142147994386844E-02  1.27903959162850550E-01  3.37905248288927136E-05  0.00000000000000000E+00  0.00000000000000000E+00
  436.000000  4.71064869537029372E+04  4.66871460557253522E+04  3.31036348174272455E+00  4.15826050473697421E+02  7.74893999711962073E-02  1.26965206391180280E-01  2.94157818192483745E-05  0.00000000000000000E+00  0.00000000000000000E+00
  438.000000  4.79306493467130713E+04  4.75108966549189208E+04  2.52196983175686507E+00  4.17037282407246721E+02  6.78905305433506467E-02  1.25523324697357858E-01  2.56998978180243621E-05  0.00000000000000000E+00  0.00000000000000000E+00
  440.000000  4.85837534401994126E+04  4.81650576439457582E+04  1.92567528870441684E+00  4.16586564106603362E+02  5.99530562817626456E-02  1.23581224953195026E-01  2.25771164019813740E-05  0.00000000000000000E+00  0.00000000000000000E+00
  442.000000  4.90520206622833211E+04  4.86358868901258393E+04  1.52505615969552788E+00  4.14433997069378336E+02  5.35467277273763212E-02  1.21152225018884591E-01  1.99756607388584811E-05  0.00000000000000000E+00  0.00000000000000000E+00
  444.000000  4.93255045734793312E+04  4.89134591834654275E+04  1.30173284790687549E+00  4.10576920112017660E+02  4.84588647788866470E-02  1.18260374604646862E-01  1.78145923335288168E-05  0.00000000000000000E+00  0.00000000000000000E+00
  446.000000  4.93986434362126020E+04  4.89922134243890177E+04  1.21886105878940509E+00  4.05051776010958690E+02  4.44186052374564919E-02  1.14940139662119217E-01  1.60089310258837412E-05  0.00000000000000000E+00  0.00000000000000000E+00
  448.000000  4.92705831193820850E+04  4.88712656566714504E+04  1.23134243541421573E+00  3.97933723897779032E+02  4.11464639178323946E-02  1.11235434420684939E-01  1.44791004746851648E-05  0.00000000000000000E+00  0.00000000000000000E+00
  450.000000  4.89452295375173853E+04  4.85544532678956530E+04  1.29672948487589701E+00  3.89333928630145806E+02  3.84002918017170430E-02  1.07198056084490526E-01  1.31588211303042851E-05  0.00000000000000000E+00  0.00000000000000000E+00
  452.000000  4.84310183783404718E+04  4.80501027181286627E+04  1.38204250766532022E+00  3.79394721316230687E+02  3.59987426476916506E-02  1.02885647104429004E-01  1.19981632936866603E-05  0.00000000000000000E+00  0.00000000000000000E+00
  454.000000  4.77404250977793199E+04  4.73705442751512528E+04  1.46555379386840623E+00  3.68283076712097852E+02  3.38217948405379887E-02  9.83593650537940983E-02  1.09622090552139844E-05  0.00000000000000000E+00  0.00000000000000000E+00
  456.000000  4.68892687164086383E+04  4.65314249617032983E+04  1.53523834019277938E+00  3.56183026621907686E+02  3.17982498153147608E-02  9.36814658619692930E-02  1.00275546316019361E-05  0.00000000000000000E+00  0.00000000000000000E+00
  458.000000  4.58958816758627145E+04  4.55508891655419066E+04  1.58600397818180894E+00  3.43287694058372665E+02  2.98901062088528721E-02  8.89129994351886416E-02  9.17860769427708041E-06  0.00000000000000000E+00  0.00000000000000000E+00
  460.000000  4.47802237362467131E+04  4.44487028851588402E+04  1.61705457156911026E+00  3.29791597024994360E+02  2.80793030286952579E-02  8.41117836372421157E-02  8.40464185577070667E-06  0.00000000000000000E+00  0.00000000000000000E+00
  462.000000  4.35630126710804761E+04  4.32453933062410506E+04  1.62991003567672776E+00  3.15883757903834521E+02  2.63584289818651445E-02  7.93307731364366886E-02  7.69779717110454782E-06  0.00000000000000000E+00  0.00000000000000000E+00
  464.000000  4.22649314705868164E+04  4.19614630102749725E+04  1.62711584240417606E+00  3.01741995548208934E+02  2.47249852441552252E-02  7.46168841187266618E-02  7.05185870687902465E-06  0.00000000000000000E+00  0.00000000000000000E+00
