# Wavelength | Total | n= 1 | ...
  300.000000  1.98297386227085781E+03  1.54668735956339719E+03  3.77875020552895421E+02  5.55310646813899496E+01  2.79390370552847900E+00  8.44104810870875133E-02  2.07842366760779135E-03  2.45128525243330649E-05  3.50039219202130280E-07
  302.000000  2.08888344633371935E+03  1.63670772109974837E+03  3.92017158156675407E+02  5.72440646360474474E+01  2.82774471546524708E+00  8.46788068162056401E-02  2.05463904461971247E-03  2.39421208619791083E-05  3.37800825686382186E-07
  304.000000  2.19982198372128687E+03  1.73129645829085143E+03  4.06584964835238281E+02  5.89910207842180867E+01  2.86253489813804540E+00  8.49490032963432090E-02  2.03218709943917388E-03  2.33961925310169955E-05  3.26253524796531491E-07
  306.000000  2.31610533725150981E+03  1.83073179505861776E+03  4.21613110233081613E+02  6.07746414227233203E+01  2.89853081673052193E+00  8.52256347665804187E-02  2.01120994765825256E-03  2.28756426848579963E-05  0.00000000000000000E+00
  308.000000  2.43807468468131901E+03  1.93531367097990051E+03  4.37139676822681622E+02  6.25978037468422457E+01  2.93600558143001145E+00  8.55133192757470961E-02  1.99185015207314344E-03  2.23810361761031166E-05  0.00000000000000000E+00
  310.000000  2.56609890282070000E+03  2.04536570983914953E+03  4.53206562283025789E+02  6.44635653330948912E+01  2.97525241457396161E+00  8.58167844388508932E-02  1.97425345657750197E-03  2.19129604184512596E-05  0.00000000000000000E+00
  312.000000  2.70057724324286573E+03  2.16123740320851130E+03  4.69859952847630723E+02  6.63751773040675346E+01  3.01658890543069269E+00  8.61409333800276789E-02  1.95857178455196646E-03  2.14720606522111253E-05  0.00000000000000000E+00
  314.000000  2.84194233772739426E+03  2.28330653666969329E+03  4.87150882500719433E+02  6.83360994899165917E+01  3.06036211733450791E+00  8.64909240576285654E-02  1.94496659369429578E-03  2.10590791162114793E-05  0.00000000000000000E+00
  316.000000  2.99066358721658480E+03  2.41198189098939793E+03  5.05135896891183052E+02  7.03500180243593007E+01  3.10695475772920204E+00  8.68722663098345088E-02  1.93361270423219591E-03  2.06749000631242876E-05  0.00000000000000000E+00
  318.000000  3.14725099711672419E+03  2.54770625637605372E+03  5.23877846098742111E+02  7.24208659908854884E+01  3.15679268512428601E+00  8.72909425648734777E-02  1.92470275068779332E-03  2.03206031803918832E-05  0.00000000000000000E+00
  320.000000  3.31225953678679707E+03  2.69095980526311996E+03  5.43446837405359815E+02  7.45528479959069301E+01  3.21035411198193410E+00  8.77535604485870507E-02  1.91845245212750011E-03  1.99975288806348623E-05  0.00000000000000000E+00
  322.000000  3.48629412034463439E+03  2.84226387839258814E+03  5.63921388678667427E+02  7.67504699326473769E+01  3.26818097758409465E+00  8.82675488307750611E-02  1.91510695665921991E-03  1.97073602461156221E-05  0.00000000000000000E+00
  324.000000  3.67001533160962435E+03  3.00218525103921775E+03  5.85389835852732858E+02  7.90185757809567519E+01  3.33089312218183986E+00  8.88414137077326305E-02  1.91494859973635940E-03  1.94522283678037792E-05  0.00000000000000000E+00
  326.000000  3.86414605063660429E+03  3.17134096199495889E+03  6.07952065740283047E+02  8.13623941714328822E+01  3.39920611098533643E+00  8.94850775609676297E-02  1.91830653250963626E-03  1.92348507592732978E-05  0.00000000000000000E+00
  328.000000  4.06947918649836993E+03  3.35040380869724459E+03  6.31721670176410271E+02  8.37875988002422929E+01  3.47395386009169149E+00  9.02103368225296021E-02  1.92556884141616277E-03  1.90587170295158532E-05  0.00000000000000000E+00
  330.000000  4.28688678564552083E+03  3.54010863900021968E+03  6.56828652491061121E+02  8.63003888932094299E+01  3.55611764559946186E+00  9.10314890714753883E-02  1.93719801708022092E-03  1.89283430181763418E-05  0.00000000000000000E+00
  332.000000  4.51733087339465692E+03  3.74125960423366723E+03  6.83422867418495230E+02  8.89075992416470484E+01  3.64686369183620185E+00  9.19662084078839842E-02  1.95375097777057650E-03  1.88496257978307769E-05  0.00000000000000000E+00
  334.000000  4.76187650302469046E+03  3.95473857621112029E+03  7.11678448238985879E+02  9.16168546201812575E+01  3.74759242793294156E+00  9.30367907450388165E-02  1.97590537435979492E-03  1.88303502348435693E-05  0.00000000000000000E+00
  336.000000  5.02170762762418872E+03  4.18151495491997503E+03  7.41799581651746621E+02  9.44367918915844058E+01  3.86000382283863441E+00  9.42719624009178137E-02  2.00449471395355069E-03  1.88809284900224656E-05  0.00000000000000000E+00
  338.000000  5.29814652241383283E+03  4.42265703237815706E+03  7.74028148825432254E+02  9.73773868654783854E+01  3.98618520584790126E+00  9.57095672570772854E-02  2.04055615349635041E-03  1.90155069426855532E-05  0.00000000000000000E+00
  340.000000  5.59267732657498527E+03  4.67934466018364037E+03  8.08653984427277123E+02  1.00450445553188203E+02  4.12873109821379636E+00  9.74006619281279767E-02  2.08539706757396564E-03  1.92536702847182155E-05  0.00000000000000000E+00
  342.000000  5.90697281968669085E+03  4.95288113581970629E+03  8.46028839522416888E+02  1.03670358369375052E+02  4.29090972100727974E+00  9.94159404325583307E-02  2.14069060052728263E-03  1.96231514777512933E-05  0.00000000000000000E+00
  344.000000  6.24291674608734866E+03  5.24469490260970906E+03  8.86585561027509357E+02  1.07055297293006191E+02  4.47690020011125345E+00  1.01856174551374579E-01  2.20861814770768319E-03  2.01643144425262182E-05  0.00000000000000000E+00
  346.000000  6.60259083951376670E+03  5.55629780807361567E+03  9.30864443969703302E+02  1.10629259650505560E+02  4.69214472801278060E+00  1.04870064553832021E-01  2.29208943614510503E-03  2.09379391569811497E-05  0.00000000000000000E+00
  348.000000  6.98816126713523863E+03  5.88913079639212083E+03  9.79549714160118697E+02  1.14425738590767637E+02  4.94391257507147142E+00  1.08688284273256469E-01  2.39509305897765224E-03  2.20398261217743182E-05  0.00000000000000000E+00
  350.000000  7.40166293196547304E+03  6.24428709382432680E+03  1.03352443606057454E+03  1.18492841370149065E+02  5.24230643523133644E+00  1.13706773863119906E-01  2.52384935528460674E-03  2.36519736383612741E-05  0.00000000000000000E+00
  352.000000  7.84474618261585692E+03  6.62216383729847348E+03  1.09396053856787557E+03  1.22896177067153616E+02  5.60227362498452042E+00  1.20638454760908842E-01  2.69139270385865010E-03  2.62099062972097845E-05  0.00000000000000000E+00
  354.000000  8.31998484263671708E+03  7.02358169566098968E+03  1.16250301562271670E+03  1.27718523300291736E+02  6.04858931229321861E+00  1.30070736384396951E-01  2.91778108393951413E-03  3.02229603369210554E-05  0.00000000000000000E+00
  356.000000  8.82977489795388647E+03  7.44874671865857181E+03  1.24139917419943026E+03  1.32849359521587644E+02  6.63526907029455426E+00  1.41095258386198158E-01  3.24579374387565537E-03  3.54518719004497375E-05  0.00000000000000000E+00
  358.000000  9.36181969137869055E+03  7.88284498251797868E+03  1.33346133057333532E+03  1.37864396498921678E+02  7.49629270814726301E+00  1.48856707316118692E-01  3.79284831819037523E-03  3.95246747559715794E-05  0.00000000000000000E+00
  360.000000  9.93574560181106972E+03  8.33899699827865334E+03  1.44367044928482028E+03  1.44152907031654479E+02  8.76858631416593504E+00  1.52008924499409226E-01  4.61331208852884533E-03  3.86651870955367596E-05  0.00000000000000000E+00
  362.000000  1.06112167649720705E+04  8.86533590272546098E+03  1.58145678392586456E+03  1.53910807457691590E+02  1.03447445345458959E+01  1.62971005528121382E-01  5.51796258513203262E-03  3.73603938678003687E-05  0.00000000000000000E+00
  364.000000  1.13875909463105309E+04  9.44815790300127446E+03  1.75831494542012001E+03  1.68560200436857684E+02  1.23593988916993833E+01  1.91827915806325994E-01  6.62846109366325119E-03  4.21836790629450477E-05  0.00000000000000000E+00
  366.000000  1.22435976307095698E+04  1.00475132695727443E+04  1.98701701356526905E+03  1.93676154526539221E+02  1.51326762489206672E+01  2.50251958042141620E-01  8.20919940673747218E-03  5.56386482507307623E-05  0.00000000000000000E+00
  368.000000  1.31256907621612027E+04  1.05910023012469337E+04  2.27325285753079834E+03  2.42447562895861438E+02  1.86163012279641151E+01  3.61417299535332526E-01  1.02404014546388835E-02  8.15586574010205911E-05  0.00000000000000000E+00
  370.000000  1.38976430148854015E+04  1.09205650200065265E+04  2.61862515599453263E+03  3.35710223567405762E+02  2.21824942892488650E+01  5.47810502976799452E-01  1.21885696228219206E-02  1.21955086290300867E-04  0.00000000000000000E+00
  372.000000  1.44627463324477030E+04  1.10124655294626027E+04  2.96805005875280949E+03  4.55867001783044884E+02  2.56158313308863477E+01  7.33902033606386728E-01  1.38521595265414764E-02  1.55552326670632430E-04  1.37290236966726316E-06
  374.000000  1.48453494198421704E+04  1.13582839964996183E+04  2.95602800691615948E+03  5.04576216331948160E+02  2.56920859422944758E+01  7.55173696825850893E-01  1.37882155177409711E-02  1.50899249354749569E-04  1.34055505509742196E-06
  376.000000  1.51116868035932330E+04  1.21332468839894136E+04  2.50262349921413852E+03  4.55267534888319403E+02  1.99161830220154528E+01  6.22005199181071777E-01  1.05791885915015472E-02  1.18091572036089617E-04  0.00000000000000000E+00
  378.000000  1.56010276935023940E+04  1.31219856133905123E+04  2.08520810309567969E+03  3.80329838471426740E+02  1.30433421615530492E+01  4.54053141605795352E-01  6.66251141144017477E-03  8.07302081628691386E-05  0.00000000000000000E+00
  380.000000  1.64275219634472414E+04  1.41822962250087730E+04  1.90453782991456728E+03  3.31737482109567679E+02  8.60875332852341657E+00  3.37568516620100234E-01  4.04961673365270523E-03  5.49524561382693525E-05  0.00000000000000000E+00
  382.000000  1.74730329171276426E+04  1.52710117720236376E+04  1.88771401809967574E+03  3.07754461845134756E+02  6.27930168674295519E+00  2.70715560630829521E-01  2.60788337426124490E-03  4.00284469408598680E-05  0.00000000000000000E+00
  384.000000  1.86515202753299091E+04  1.63889414674213513E+04  1.95981705522276388E+03  2.97388886253688327E+02  5.13886163960528197E+00  2.32138766218665221E-01  1.83472565659314785E-03  3.13006203901510034E-05  0.00000000000000000E+00
  386.000000  1.99272027352200530E+04  1.75439261216601517E+04  2.08414598727741031E+03  2.94286333436139898E+02  4.63414128644800183E+00  2.08708700170174843E-01  1.41696973761965667E-03  2.58899986468226687E-05  0.00000000000000000E+00
  388.000000  2.12872000239794834E+04  1.87414592605193866E+04  2.24576288334133596E+03  2.95295892255613808E+02  4.48702958098927507E+00  1.93742376076777301E-01  1.19357920264406901E-03  2.23268846439105239E-05  0.00000000000000000E+00
  390.000000  2.27272453347347691E+04  1.99836429764727291E+04  2.44008146672926659E+03  2.98775035391281904E+02  4.56098366616526363E+00  1.83769692232761545E-01  1.08293190758436430E-03  1.98511898961828951E-05  0.00000000000000000E+00
  392.000000  2.42459760061916022E+04  2.12694317288719540E+04  2.66779595265407443E+03  3.03780911712811985E+02  4.78947892210294501E+00  1.76873299972848702E-01  1.04268280919939398E-03  1.80478788863068499E-05  0.00000000000000000E+00
  394.000000  2.58427329043914069E+04  2.25948745196189739E+04  2.93283338738989642E+03  3.09709806577439622E+02  5.14220388693256414E+00  1.71919799394613854E-01  1.05044202819264284E-03  1.66767371343494445E-05  0.00000000000000000E+00
  396.000000  2.75167673276701607E+04  2.39532562457281310E+04  3.24160265029416405E+03  3.16129982417043038E+02  5.60914458279931427E+00  1.68194565125887596E-01  1.09449177430547950E-03  1.55911241193157167E-05  0.00000000000000000E+00
  398.000000  2.92670523509349805E+04  2.53352245951456898E+04  3.60276813349562553E+03  3.22700389160602356E+02  6.19282967645113747E+00  1.65219594859899399E-01  1.16916447802747079E-03  1.46972735951529486E-05  0.00000000000000000E+00
  400.000000  3.10923125871932425E+04  2.67290004283967319E+04  4.02711366709182266E+03  3.29130433202000233E+02  6.90411379484647370E+00  1.62658394527042754E-01  1.27238044952700247E-03  1.39328654154821926E-05  0.00000000000000000E+00
  402.000000  3.29908951840838563E+04  2.81207537361198483E+04  4.52705964011651122E+03  3.35161224993478470E+02  7.75890083508414818E+00  1.60264658029780988E-01  1.40410566204391025E-03  1.32552348741274842E-05  0.00000000000000000E+00
  404.000000  3.49598328531739244E+04  2.94952030774479135E+04  5.11513759730528545E+03  3.40559106838810976E+02  8.77363979860512977E+00  1.57854171753718298E-01  1.56497691836837358E-03  1.26346384331262521E-05  0.00000000000000000E+00
  406.000000  3.69919182234447071E+04  3.08364624841828190E+04  5.80022511868558377E+03  3.45116612694077389E+02  9.95695186043534264E+00  1.55289512716283523E-01  1.75445879597902225E-03  1.20502788204343715E-05  0.00000000000000000E+00
  408.000000  3.90690190819199852E+04  3.21291147754595731E+04  6.57979797348091142E+03  3.48657790325404619E+02  1.12940914220009301E+01  1.52471839381766283E-01  1.96790484111803365E-03  1.14878746536333172E-05  0.00000000000000000E+00
  410.000000  4.11502077285045598E+04  3.33594371940590063E+04  7.42685132315304600E+03  3.51045487205985523E+02  1.27221845353051393E+01  1.49336389399309044E-01  2.19222371982243525E-03  1.09380987366550360E-05  0.00000000000000000E+00
  412.000000  4.31571714136287774E+04  3.45166523328082694E+04  8.27408012357355437E+03  3.52188466787296989E+02  1.41022291818964138E+01  1.45849525863200435E-01  2.40135639713019277E-03  1.03954938993945046E-05  0.00000000000000000E+00
  414.000000  4.49696342623785749E+04  3.55940353258885079E+04  9.00819469772282719E+03  3.52046458575191366E+02  1.52132083022334541E+01  1.42005929733745040E-01  2.55610245029241380E-03  9.85763752227614780E-06  0.00000000000000000E+00
  416.000000  4.64535064034427705E+04  3.65896863703785057E+04  9.49723787077895577E+03  3.50631645959557545E+02  1.58100666725843055E+01  1.37825104034890622E-01  2.61522470347432239E-03  9.32442696140458180E-06  0.00000000000000000E+00
  418.000000  4.75278035677281150E+04  3.75067778864725260E+04  9.65713276041778954E+03  3.48005702511538800E+02  1.57513049349485872E+01  1.33346841953287554E-01  2.55775193185833792E-03  8.79742552937192243E-06  0.00000000000000000E+00
  420.000000  4.82237806367419180E+04  3.83530997093489714E+04  9.51117440092298602E+03  3.44272214717825307E+02  1.51032782525108349E+01  1.28625723982673773E-01  2.39949639467924641E-03  8.27925374430440204E-06  0.00000000000000000E+00
  422.000000  4.86729675424868110E+04  3.91397371696212940E+04  9.17943219300973033E+03  3.39565011220257816E+02  1.41072507969331227E+01  1.23725012206778145E-01  2.18505334761815708E-03  7.77303734381599892E-06  0.00000000000000000E+00
  424.000000  4.90336588216183009E+04  3.98787121730966537E+04  8.80775315975039121E+03  3.34033391730326230E+02  1.30394167098601557E+01  1.18710466491504046E-01  1.96258263954542794E-03  7.28193442316307644E-06  0.00000000000000000E+00
  426.000000  4.94244545788996911E+04  4.05794084058098306E+04  8.50500844443919050E+03  3.27825448250307488E+02  1.20968641263368841E+01  1.13644614993839627E-01  1.76485027481577397E-03  6.80876235643252992E-06  0.00000000000000000E+00
  428.000000  4.99000105008244500E+04  4.12436620053736187E+04  8.32379787573186150E+03  3.21070718724282870E+02  1.13697069513947575E+01  1.08581915866625453E-01  1.60577169282070053E-03  6.35573601933934542E-06  0.00000000000000000E+00
  430.000000  5.04541283258174662E+04  4.18597033751676863E+04  8.26959068613463569E+03  3.13863660684829995E+02  1.08655471179065497E+01  1.03565137582791331E-01  1.48565051437602141E-03  5.92431832255681272E-06  0.00000000000000000E+00
  432.000000  5.10280721793495613E+04  4.23959536382852530E+04  8.31522654635975232E+03  3.06250380603451958E+02  1.05415880759155041E+01  9.86232646561905901E-02  1.39724535761349229E-03  5.51517757047691417E-06  0.00000000000000000E+00
  434.000000  5.15173674923596918E+04  4.27971788270691613E+04  8.41154339283964873E+03  2.98222945972200478E+02  1.03272201572130502E+01  9.37713491440878427E-02  1.32984407715379979E-03  5.12824578744704583E-06  0.00000000000000000E+00
  436.000000  5.17827630306737992E+04  4.29871882234345831E+04  8.49561799043270184E+03  2.89727488100041739E+02  1.01390393814187920E+01  8.90128401612668152E-02  1.27172201110302288E-03  4.76287340371669654E-06  0.00000000000000000E+00
  438.000000  5.16740866580175862E+04  4.28822610392265706E+04  8.50115392404297381E+03  2.80691095193339493E+02  9.89503845286450456E+00  8.43446277133753919E-02  1.21205605424351678E-03  4.41806625923607973E-06  0.00000000000000000E+00
  440.000000  5.10688683611152810E+04  4.24151476565683552E+04  8.37304418083012024E+03  2.71064434588735878E+02  9.53117829564462937E+00  7.97639087382548823E-02  1.14283091762877901E-03  4.09275992022589214E-06  0.00000000000000000E+00
  442.000000  4.99134883562623800E+04  4.15610136894106981E+04  8.08251789098889640E+03  2.60863700302841437E+02  9.01673700723054417E+00  7.52743707260438294E-02  1.06039593942798202E-03  3.78604724002770273E-06  0.00000000000000000E+00
  444.000000  4.82446206660562966E+04  4.03508679309391591E+04  7.63513179617442711E+03  2.50188572679657113E+02  8.36050824611891130E+00  7.08886705696258612E-02  9.65849092034633890E-04  3.49727374378880759E-06  0.00000000000000000E+00
  446.000000  4.61764889739352948E+04  3.88633249791928174E+04  7.06628881138620636E+03  2.39204484121924139E+02  7.60320606034830337E+00  6.66260899365407055E-02  8.63858076747400761E-04  3.22598204631021099E-06  0.00000000000000000E+00
  448.000000  4.38615963042771255E+04  3.71997372768961577E+04  6.42689467803476236E+03  2.28100919349109773E+02  6.80015918037853595E+00  6.25073305287251607E-02  7.60514415800901743E-04  2.97177532014804645E-06  0.00000000000000000E+00
  450.000000  4.14479436020910289E+04  3.54573503885327082E+04  5.76747971404988220E+03  2.17050469480048037E+02  6.00381619475694972E+00  5.85497619881222217E-02  6.61337440130887045E-04  2.73419839326576591E-06  0.00000000000000000E+00
  452.000000  3.90515144928702284E+04  3.37122761172315659E+04  5.12774394193064018E+03  2.06185919154973192E+02  5.25317673130443019E+00  5.47651363593271226E-02  5.70172711421691280E-04  2.51268874147780644E-06  0.00000000000000000E+00
  454.000000  3.67481449865413088E+04  3.20147331039976998E+04  4.53319218061488937E+03  1.95596853185819242E+02  4.57119773781502392E+00  5.11596829180807414E-02  4.89015578538963568E-04  2.30658868684133274E-06  0.00000000000000000E+00
  456.000000  3.45785038235737447E+04  3.03924794099495593E+04  3.99667117073903137E+03  1.85337801287608869E+02  3.96728568066754361E+00  4.77354233131487352E-02  4.18378377663080182E-04  2.11518386717193087E-06  0.00000000000000000E+00
  458.000000  3.25580798874600514E+04  2.88572856165603298E+04  3.52186839123199388E+03  1.75439489984770717E+02  3.44153828703649944E+00  4.44916465723637078E-02  3.57811609760434507E-04  1.93773991082307274E-06  0.00000000000000000E+00
  460.000000  3.06868838362207789E+04  2.74111255216620339E+04  3.10680951261884047E+03  1.65918390905745838E+02  2.98867865613775896E+00  4.14260209035387725E-02  3.06357118397102609E-04  0.00000000000000000E+00  0.00000000000000000E+00
  462.000000  2.89567573049503226E+04  2.60507907369004715E+04  2.74654371732933760E+03  1.56783122657824947E+02  2.60092994812699008E+00  3.85352511263230627E-02  2.62863431866357244E-04  0.00000000000000000E+00  0.00000000000000000E+00
  464.000000  2.73561041908956540E+04  2.47708448342548254E+04  2.43491544303731098E+03  1.48038049130469858E+02  2.26982290999494207E+00  3.58153893015316221E-02  2.26173749291976777E-04  0.00000000000000000E+00  0.00000000000000000E+00
